# OpenSignals Text File Format. Version 1
# {"84:BA:20:5E:FF:67": {"position": 0, "device": "bitalino_rev", "device name": "84:BA:20:5E:FF:67", "device connection": "BTH84:BA:20:5E:FF:67", "sampling rate": 100, "resolution": [4, 1, 1, 1, 1, 10, 10, 10, 10, 6, 6], "firmware version": 1282, "comments": "", "keywords": "", "mode": 0, "sync interval": 2, "date": "2024-3-1", "time": "19:17:20.238", "channels": [1, 2, 3, 4, 5, 6], "sensor": ["RAW", "RAW", "RAW", "RAW", "RAW", "RAW"], "label": ["A1", "A2", "A3", "A4", "A5", "A6"], "column": ["nSeq", "I1", "I2", "O1", "O2", "A1", "A2", "A3", "A4", "A5", "A6"], "special": [{}, {}, {}, {}, {}, {}], "digital IO": [0, 0, 1, 1]}}
# EndOfHeader
0	0	0	0	0	514	509	0	538	39	22	
1	0	0	0	0	516	512	0	325	39	22	
2	0	0	0	0	521	509	0	620	39	22	
3	0	0	0	0	514	506	0	330	39	22	
4	0	0	0	0	517	509	0	578	39	22	
5	0	0	0	0	508	505	0	330	39	22	
6	0	0	0	0	506	510	0	607	39	22	
7	0	0	0	0	512	509	0	339	39	22	
8	0	0	0	0	508	508	0	615	39	22	
9	0	0	0	0	516	510	0	332	39	22	
10	0	0	0	0	510	512	0	591	39	22	
11	0	0	0	0	514	506	0	322	39	22	
12	0	0	0	0	508	509	0	636	39	22	
13	0	0	0	0	512	510	0	331	39	22	
14	0	0	0	0	513	510	0	596	39	22	
15	0	0	0	0	511	508	0	318	39	22	
0	0	0	0	0	513	510	0	542	39	22	
1	0	0	0	0	556	509	0	327	39	22	
2	0	0	0	0	509	508	0	643	39	22	
3	0	0	0	0	517	509	0	324	39	22	
4	0	0	0	0	513	511	0	627	39	22	
5	0	0	0	0	515	508	0	318	39	22	
6	0	0	0	0	520	505	0	624	39	22	
7	0	0	0	0	512	510	0	310	39	22	
8	0	0	0	0	511	508	0	500	39	22	
9	0	0	0	0	508	508	0	317	39	22	
10	0	0	0	0	515	508	0	553	39	22	
11	0	0	0	0	514	508	0	322	39	22	
12	0	0	0	0	521	507	0	643	39	22	
13	0	0	0	0	513	509	0	320	39	22	
14	0	0	0	0	507	508	0	556	39	22	
15	0	0	0	0	515	509	0	319	39	22	
0	0	0	0	0	507	507	0	552	39	22	
1	0	0	0	0	519	510	0	332	39	22	
2	0	0	0	0	499	510	0	603	39	22	
3	0	0	0	0	516	506	0	333	39	22	
4	0	0	0	0	506	508	0	566	39	22	
5	0	0	0	0	516	509	0	331	39	22	
6	0	0	0	0	510	508	0	580	39	22	
7	0	0	0	0	515	507	0	335	39	22	
8	0	0	0	0	516	507	0	595	39	23	
9	0	0	0	0	515	507	0	330	39	22	
10	0	0	0	0	514	510	0	603	39	22	
11	0	0	0	0	515	509	0	327	39	23	
12	0	0	0	0	512	511	0	637	39	23	
13	0	0	0	0	517	507	0	330	39	23	
14	0	0	0	0	506	507	0	547	39	23	
15	0	0	0	0	517	507	0	326	39	23	
0	0	0	0	0	512	510	0	622	39	23	
1	0	0	0	0	524	512	0	326	39	23	
2	0	0	0	0	507	509	0	562	39	23	
3	0	0	0	0	536	512	0	315	39	23	
4	0	0	0	0	511	511	0	592	39	23	
5	0	0	0	0	517	509	0	324	39	23	
6	0	0	0	0	523	510	0	567	39	23	
7	0	0	0	0	536	508	0	327	39	23	
8	0	0	0	0	511	510	0	594	39	23	
9	0	0	0	0	519	508	0	321	39	23	
10	0	0	0	0	510	510	0	641	39	23	
11	0	0	0	0	516	508	0	310	39	23	
12	0	0	0	0	513	504	0	629	39	23	
13	0	0	0	0	506	508	0	307	40	23	
14	0	0	0	0	504	508	0	544	39	23	
15	0	0	0	0	537	507	0	305	39	23	
0	0	0	0	0	504	505	0	556	39	23	
1	0	0	0	0	494	507	0	322	39	23	
2	0	0	0	0	542	509	0	657	40	23	
3	0	0	0	0	525	507	0	298	39	23	
4	0	0	0	0	503	508	0	716	39	23	
5	0	0	0	0	519	507	0	280	39	23	
6	0	0	0	0	517	511	0	649	39	23	
7	0	0	0	0	514	504	0	258	39	23	
8	0	0	0	0	514	508	0	870	39	23	
9	0	0	0	0	520	509	0	222	39	23	
10	0	0	0	0	511	512	0	789	39	23	
11	0	0	0	0	511	508	0	184	39	23	
12	0	0	0	0	531	511	0	1018	39	23	
13	0	0	0	0	500	507	0	129	39	23	
14	0	0	0	0	489	510	0	755	39	23	
15	0	0	0	0	494	508	0	96	40	23	
0	0	0	0	0	520	513	0	1018	39	23	
1	0	0	0	0	508	508	0	39	39	23	
2	0	0	0	0	508	510	0	574	39	23	
3	0	0	0	0	519	508	0	22	40	23	
4	0	0	0	0	510	509	0	655	39	23	
5	0	0	0	0	513	508	0	17	39	23	
6	0	0	0	0	513	511	0	631	39	23	
7	0	0	0	0	513	507	0	14	40	23	
8	0	0	0	0	509	510	0	823	39	23	
9	0	0	0	0	515	507	0	0	39	23	
10	0	0	0	0	512	508	0	623	39	23	
11	0	0	0	0	518	507	0	0	39	23	
12	0	0	0	0	512	508	0	507	39	23	
13	0	0	0	0	514	506	0	0	39	23	
14	0	0	0	0	512	509	0	631	39	23	
15	0	0	0	0	529	507	0	0	39	23	
0	0	0	0	0	514	507	0	647	39	23	
1	0	0	0	0	511	507	0	0	39	23	
2	0	0	0	0	515	509	0	831	39	23	
3	0	0	0	0	514	508	0	0	39	23	
4	0	0	0	0	501	509	0	1018	39	23	
5	0	0	0	0	534	506	0	0	39	23	
6	0	0	0	0	506	508	0	764	39	23	
7	0	0	0	0	513	507	0	0	39	23	
8	0	0	0	0	514	512	0	822	39	23	
9	0	0	0	0	519	508	0	0	39	23	
10	0	0	0	0	511	508	0	591	39	23	
11	0	0	0	0	511	509	0	0	39	23	
12	0	0	0	0	508	512	0	1018	39	23	
13	0	0	0	0	519	509	0	0	39	23	
14	0	0	0	0	509	509	0	691	39	23	
15	0	0	0	0	514	506	0	0	39	23	
0	0	0	0	0	511	508	0	487	40	23	
1	0	0	0	0	533	506	0	0	39	23	
2	0	0	0	0	519	505	0	466	39	22	
3	0	0	0	0	559	510	0	0	40	23	
4	0	0	0	0	510	508	0	455	39	23	
5	0	0	0	0	551	511	0	0	39	23	
6	0	0	0	0	514	510	0	430	39	22	
7	0	0	0	0	521	507	0	0	39	22	
8	0	0	0	0	511	509	0	518	39	22	
9	0	0	0	0	513	508	0	0	39	22	
10	0	0	0	0	499	509	0	478	39	22	
11	0	0	0	0	524	510	0	0	40	22	
12	0	0	0	0	526	510	0	348	39	22	
13	0	0	0	0	520	512	0	0	39	22	
14	0	0	0	0	512	509	0	384	39	22	
15	0	0	0	0	519	508	0	42	39	22	
0	0	0	0	0	510	509	0	524	39	22	
1	0	0	0	0	517	508	0	68	37	22	
2	0	0	0	0	511	510	0	815	40	22	
3	0	0	0	0	517	508	0	43	39	22	
4	0	0	0	0	512	507	0	690	39	22	
5	0	0	0	0	518	508	0	28	39	22	
6	0	0	0	0	513	511	0	579	39	22	
7	0	0	0	0	517	509	0	22	39	22	
8	0	0	0	0	510	505	0	448	39	22	
9	0	0	0	0	515	502	0	62	39	22	
10	0	0	0	0	512	506	0	469	39	22	
11	0	0	0	0	518	505	0	92	39	22	
12	0	0	0	0	512	511	0	577	39	22	
13	0	0	0	0	514	510	0	108	39	22	
14	0	0	0	0	513	509	0	439	40	22	
15	0	0	0	0	520	507	0	132	39	22	
0	0	0	0	0	513	509	0	504	39	22	
1	0	0	0	0	516	509	0	168	39	22	
2	0	0	0	0	511	509	0	567	39	22	
3	0	0	0	0	514	510	0	177	40	22	
4	0	0	0	0	514	510	0	506	38	22	
5	0	0	0	0	518	511	0	198	39	22	
6	0	0	0	0	512	507	0	614	39	22	
7	0	0	0	0	513	508	0	213	39	22	
8	0	0	0	0	514	510	0	595	39	22	
9	0	0	0	0	517	508	0	216	39	22	
10	0	0	0	0	508	513	0	855	39	22	
11	0	0	0	0	515	509	0	178	39	22	
12	0	0	0	0	515	508	0	776	39	22	
13	0	0	0	0	518	508	0	145	39	22	
14	0	0	0	0	511	508	0	754	39	22	
15	0	0	0	0	514	508	0	113	39	22	
0	0	0	0	0	513	508	0	609	39	22	
1	0	0	0	0	516	508	0	95	39	22	
2	0	0	0	0	518	506	0	789	39	22	
3	0	0	0	0	512	510	0	73	39	22	
4	0	0	0	0	512	511	0	561	39	22	
5	0	0	0	0	517	509	0	71	39	22	
6	0	0	0	0	513	509	0	700	39	22	
7	0	0	0	0	514	511	0	56	39	22	
8	0	0	0	0	512	510	0	1018	39	22	
9	0	0	0	0	519	509	0	1	39	22	
10	0	0	0	0	513	510	0	711	39	22	
11	0	0	0	0	519	509	0	0	39	22	
12	0	0	0	0	513	506	0	504	39	22	
13	0	0	0	0	513	507	0	0	39	22	
14	0	0	0	0	519	510	0	568	39	22	
15	0	0	0	0	514	509	0	0	39	22	
0	0	0	0	0	511	508	0	464	39	22	
1	0	0	0	0	515	505	0	0	39	22	
2	0	0	0	0	513	511	0	572	39	22	
3	0	0	0	0	516	506	0	0	39	22	
4	0	0	0	0	511	508	0	458	39	23	
5	0	0	0	0	518	508	0	13	39	22	
6	0	0	0	0	515	508	0	542	39	22	
7	0	0	0	0	516	508	0	28	39	22	
8	0	0	0	0	513	509	0	632	39	22	
9	0	0	0	0	517	509	0	24	39	23	
10	0	0	0	0	513	509	0	764	39	23	
11	0	0	0	0	517	509	0	0	39	22	
12	0	0	0	0	510	509	0	647	39	23	
13	0	0	0	0	519	508	0	0	39	23	
14	0	0	0	0	513	510	0	522	39	22	
15	0	0	0	0	515	510	0	0	39	23	
0	0	0	0	0	512	508	0	482	39	23	
1	0	0	0	0	518	508	0	0	39	23	
2	0	0	0	0	513	512	0	542	39	23	
3	0	0	0	0	518	509	0	5	39	23	
4	0	0	0	0	514	507	0	806	39	23	
5	0	0	0	0	514	506	0	0	39	22	
6	0	0	0	0	513	508	0	720	39	23	
7	0	0	0	0	516	508	0	0	39	22	
8	0	0	0	0	513	509	0	577	39	22	
9	0	0	0	0	517	510	0	0	39	22	
10	0	0	0	0	513	507	0	655	39	22	
11	0	0	0	0	515	505	0	0	39	22	
12	0	0	0	0	515	510	0	695	39	22	
13	0	0	0	0	517	509	0	0	39	22	
14	0	0	0	0	512	508	0	714	39	22	
15	0	0	0	0	518	507	0	0	39	22	
0	0	0	0	0	515	508	0	560	39	22	
1	0	0	0	0	514	509	0	0	39	22	
2	0	0	0	0	517	511	0	732	39	22	
3	0	0	0	0	516	509	0	0	39	22	
4	0	0	0	0	511	513	0	882	39	22	
5	0	0	0	0	524	507	0	0	39	22	
6	0	0	0	0	511	504	0	409	39	22	
7	0	0	0	0	517	509	0	0	39	22	
8	0	0	0	0	511	510	0	596	39	22	
9	0	0	0	0	517	509	0	0	39	22	
10	0	0	0	0	511	512	0	654	39	22	
11	0	0	0	0	524	509	0	0	39	22	
12	0	0	0	0	513	507	0	383	39	22	
13	0	0	0	0	516	510	0	0	39	22	
14	0	0	0	0	514	509	0	819	39	22	
15	0	0	0	0	518	508	0	0	39	22	
0	0	0	0	0	513	508	0	638	39	22	
1	0	0	0	0	519	508	0	0	39	22	
2	0	0	0	0	512	508	0	524	39	22	
3	0	0	0	0	518	510	0	0	39	22	
4	0	0	0	0	511	509	0	355	39	22	
5	0	0	0	0	522	510	0	0	39	22	
6	0	0	0	0	510	512	0	351	39	22	
7	0	0	0	0	518	508	0	0	39	22	
8	0	0	0	0	510	507	0	415	39	22	
9	0	0	0	0	522	508	0	0	39	22	
10	0	0	0	0	515	510	0	482	39	22	
11	0	0	0	0	520	510	0	0	39	22	
12	0	0	0	0	512	508	0	542	39	22	
13	0	0	0	0	518	505	0	0	39	22	
14	0	0	0	0	513	508	0	483	39	22	
15	0	0	0	0	519	511	0	0	39	22	
0	0	0	0	0	511	508	0	705	39	22	
1	0	0	0	0	517	511	0	0	39	22	
2	0	0	0	0	514	508	0	664	39	22	
3	0	0	0	0	518	510	0	0	39	22	
4	0	0	0	0	516	509	0	540	39	22	
5	0	0	0	0	515	508	0	0	39	22	
6	0	0	0	0	512	507	0	743	39	22	
7	0	0	0	0	517	507	0	0	39	22	
8	0	0	0	0	511	510	0	484	39	22	
9	0	0	0	0	518	510	0	0	39	22	
10	0	0	0	0	511	507	0	542	39	22	
11	0	0	0	0	519	506	0	0	39	22	
12	0	0	0	0	511	510	0	491	39	22	
13	0	0	0	0	517	509	0	0	39	22	
14	0	0	0	0	509	507	0	607	39	22	
15	0	0	0	0	518	509	0	0	39	22	
0	0	0	0	0	512	511	0	518	39	22	
1	0	0	0	0	519	509	0	0	39	22	
2	0	0	0	0	513	508	0	700	39	22	
3	0	0	0	0	520	507	0	0	39	22	
4	0	0	0	0	517	511	0	465	39	22	
5	0	0	0	0	520	509	0	0	39	22	
6	0	0	0	0	511	508	0	435	39	22	
7	0	0	0	0	519	509	0	0	39	22	
8	0	0	0	0	510	509	0	543	39	22	
9	0	0	0	0	524	508	0	0	39	22	
10	0	0	0	0	511	508	0	637	39	22	
11	0	0	0	0	519	508	0	0	39	22	
12	0	0	0	0	512	507	0	707	39	22	
13	0	0	0	0	521	505	0	0	39	22	
14	0	0	0	0	512	508	0	597	39	22	
15	0	0	0	0	519	508	0	0	39	22	
0	0	0	0	0	508	506	0	581	39	22	
1	0	0	0	0	519	508	0	0	39	22	
2	0	0	0	0	513	508	0	525	39	22	
3	0	0	0	0	521	510	0	0	39	22	
4	0	0	0	0	511	508	0	560	39	22	
5	0	0	0	0	523	507	0	0	39	22	
6	0	0	0	0	515	512	0	575	39	22	
7	0	0	0	0	518	508	0	0	39	22	
8	0	0	0	0	514	510	0	400	39	22	
9	0	0	0	0	518	510	0	0	39	22	
10	0	0	0	0	513	508	0	467	39	22	
11	0	0	0	0	520	511	0	0	39	22	
12	0	0	0	0	511	509	0	579	39	22	
13	0	0	0	0	518	508	0	0	39	22	
14	0	0	0	0	513	509	0	624	39	22	
15	0	0	0	0	516	512	0	0	39	22	
0	0	0	0	0	511	511	0	561	39	22	
1	0	0	0	0	522	509	0	0	39	22	
2	0	0	0	0	511	510	0	431	39	22	
3	0	0	0	0	519	511	0	0	39	22	
4	0	0	0	0	513	506	0	396	39	22	
5	0	0	0	0	517	510	0	0	39	22	
6	0	0	0	0	512	509	0	541	39	22	
7	0	0	0	0	516	509	0	0	39	22	
8	0	0	0	0	514	508	0	551	39	22	
9	0	0	0	0	518	509	0	0	39	22	
10	0	0	0	0	511	511	0	570	39	22	
11	0	0	0	0	516	510	0	0	39	22	
12	0	0	0	0	513	509	0	649	39	22	
13	0	0	0	0	521	510	0	0	39	22	
14	0	0	0	0	517	510	0	544	39	22	
15	0	0	0	0	517	509	0	0	39	22	
0	0	0	0	0	519	508	0	482	39	22	
1	0	0	0	0	519	508	0	0	39	22	
2	0	0	0	0	512	507	0	669	39	22	
3	0	0	0	0	519	510	0	0	39	22	
4	0	0	0	0	511	511	0	676	39	22	
5	0	0	0	0	522	511	0	0	39	22	
6	0	0	0	0	509	511	0	519	39	22	
7	0	0	0	0	518	510	0	0	39	22	
8	0	0	0	0	518	508	0	425	39	22	
9	0	0	0	0	519	508	0	0	39	22	
10	0	0	0	0	513	506	0	433	39	22	
11	0	0	0	0	519	511	0	0	39	22	
12	0	0	0	0	513	510	0	427	39	22	
13	0	0	0	0	523	510	0	0	39	22	
14	0	0	0	0	511	513	0	670	39	22	
15	0	0	0	0	518	507	0	0	39	22	
0	0	0	0	0	511	508	0	437	39	22	
1	0	0	0	0	521	511	0	0	39	22	
2	0	0	0	0	512	511	0	509	39	22	
3	0	0	0	0	519	508	0	0	39	22	
4	0	0	0	0	513	508	0	453	39	22	
5	0	0	0	0	519	509	0	0	39	22	
6	0	0	0	0	514	505	0	414	39	22	
7	0	0	0	0	520	505	0	0	39	22	
8	0	0	0	0	514	509	0	520	39	22	
9	0	0	0	0	517	508	0	0	39	22	
10	0	0	0	0	513	510	0	491	39	22	
11	0	0	0	0	518	509	0	0	39	22	
12	0	0	0	0	512	508	0	451	39	22	
13	0	0	0	0	516	506	0	0	39	22	
14	0	0	0	0	514	510	0	591	39	22	
15	0	0	0	0	524	509	0	0	39	22	
0	0	0	0	0	511	507	0	516	39	22	
1	0	0	0	0	520	509	0	0	39	22	
2	0	0	0	0	512	510	0	665	39	22	
3	0	0	0	0	519	509	0	0	39	22	
4	0	0	0	0	514	509	0	476	39	22	
5	0	0	0	0	519	510	0	0	39	22	
6	0	0	0	0	513	509	0	436	39	22	
7	0	0	0	0	519	508	0	0	39	22	
8	0	0	0	0	512	508	0	513	39	22	
9	0	0	0	0	518	510	0	0	39	22	
10	0	0	0	0	513	505	0	419	39	22	
11	0	0	0	0	519	511	0	0	39	22	
12	0	0	0	0	511	510	0	478	39	22	
13	0	0	0	0	520	509	0	0	39	22	
14	0	0	0	0	511	507	0	604	39	22	
15	0	0	0	0	519	508	0	0	39	22	
0	0	0	0	0	512	505	0	417	39	22	
1	0	0	0	0	520	509	0	0	39	22	
2	0	0	0	0	511	509	0	626	39	22	
3	0	0	0	0	517	508	0	0	39	22	
4	0	0	0	0	510	511	0	416	39	22	
5	0	0	0	0	519	511	0	0	39	22	
6	0	0	0	0	512	509	0	440	39	22	
7	0	0	0	0	519	511	0	0	39	22	
8	0	0	0	0	512	510	0	451	39	22	
9	0	0	0	0	519	512	0	0	39	22	
10	0	0	0	0	513	511	0	332	39	22	
11	0	0	0	0	520	509	0	0	39	22	
12	0	0	0	0	512	510	0	529	39	22	
13	0	0	0	0	520	509	0	0	39	22	
14	0	0	0	0	515	509	0	547	39	22	
15	0	0	0	0	519	511	0	0	39	22	
0	0	0	0	0	511	513	0	473	39	22	
1	0	0	0	0	520	511	0	0	39	22	
2	0	0	0	0	512	509	0	472	39	22	
3	0	0	0	0	519	509	0	0	39	22	
4	0	0	0	0	510	509	0	464	39	22	
5	0	0	0	0	520	512	0	0	39	22	
6	0	0	0	0	510	506	0	540	39	22	
7	0	0	0	0	519	510	0	0	39	22	
8	0	0	0	0	513	507	0	405	39	22	
9	0	0	0	0	516	510	0	0	39	22	
10	0	0	0	0	510	510	0	449	39	22	
11	0	0	0	0	520	511	0	0	39	22	
12	0	0	0	0	512	508	0	517	39	22	
13	0	0	0	0	522	509	0	0	39	22	
14	0	0	0	0	513	507	0	496	39	22	
15	0	0	0	0	519	510	0	0	39	22	
0	0	0	0	0	513	508	0	587	39	22	
1	0	0	0	0	523	510	0	0	39	22	
2	0	0	0	0	510	507	0	543	39	22	
3	0	0	0	0	519	511	0	0	39	22	
4	0	0	0	0	510	508	0	351	39	22	
5	0	0	0	0	522	510	0	0	39	22	
6	0	0	0	0	510	510	0	484	39	22	
7	0	0	0	0	522	511	0	0	39	22	
8	0	0	0	0	512	510	0	525	39	22	
9	0	0	0	0	518	507	0	0	39	22	
10	0	0	0	0	511	505	0	455	39	22	
11	0	0	0	0	519	507	0	0	39	22	
12	0	0	0	0	512	507	0	430	39	22	
13	0	0	0	0	520	510	0	0	39	22	
14	0	0	0	0	511	508	0	624	39	22	
15	0	0	0	0	519	511	0	0	39	22	
0	0	0	0	0	510	508	0	611	39	22	
1	0	0	0	0	521	509	0	0	39	22	
2	0	0	0	0	513	510	0	398	39	22	
3	0	0	0	0	520	509	0	0	39	22	
4	0	0	0	0	509	506	0	464	39	22	
5	0	0	0	0	519	511	0	0	39	22	
6	0	0	0	0	511	511	0	507	39	22	
7	0	0	0	0	519	511	0	0	39	22	
8	0	0	0	0	512	508	0	400	39	22	
9	0	0	0	0	521	508	0	0	39	22	
10	0	0	0	0	512	509	0	300	39	22	
11	0	0	0	0	521	508	0	0	39	22	
12	0	0	0	0	513	510	0	324	39	22	
13	0	0	0	0	523	511	0	0	39	22	
14	0	0	0	0	515	510	0	475	39	22	
15	0	0	0	0	519	511	0	0	39	22	
0	0	0	0	0	512	506	0	391	39	22	
1	0	0	0	0	519	512	0	0	39	22	
2	0	0	0	0	515	510	0	345	39	22	
3	0	0	0	0	519	509	0	0	39	22	
4	0	0	0	0	514	511	0	476	39	22	
5	0	0	0	0	522	510	0	0	39	22	
6	0	0	0	0	511	509	0	576	39	22	
7	0	0	0	0	520	509	0	0	39	22	
8	0	0	0	0	509	511	0	444	39	22	
9	0	0	0	0	519	507	0	0	39	22	
10	0	0	0	0	511	512	0	490	39	22	
11	0	0	0	0	518	508	0	0	39	22	
12	0	0	0	0	512	510	0	497	39	22	
13	0	0	0	0	521	508	0	0	39	22	
14	0	0	0	0	510	507	0	427	39	22	
15	0	0	0	0	519	511	0	0	39	22	
0	0	0	0	0	514	508	0	413	39	22	
1	0	0	0	0	519	512	0	0	39	22	
2	0	0	0	0	512	511	0	355	39	22	
3	0	0	0	0	515	512	0	0	39	22	
4	0	0	0	0	512	511	0	418	39	22	
5	0	0	0	0	520	512	0	0	39	22	
6	0	0	0	0	513	510	0	439	39	22	
7	0	0	0	0	522	510	0	0	39	22	
8	0	0	0	0	512	511	0	430	39	22	
9	0	0	0	0	522	511	0	0	39	22	
10	0	0	0	0	516	510	0	455	39	22	
11	0	0	0	0	521	508	0	92	39	22	
12	0	0	0	0	513	505	0	463	39	22	
13	0	0	0	0	519	510	0	64	39	22	
14	0	0	0	0	512	510	0	400	39	22	
15	0	0	0	0	522	509	0	57	39	22	
0	0	0	0	0	512	509	0	404	39	22	
1	0	0	0	0	519	514	0	88	39	22	
2	0	0	0	0	511	513	0	458	39	22	
3	0	0	0	0	522	511	0	102	39	22	
4	0	0	0	0	512	508	0	589	39	22	
5	0	0	0	0	521	510	0	80	39	22	
6	0	0	0	0	512	508	0	538	39	22	
7	0	0	0	0	517	508	0	0	39	22	
8	0	0	0	0	514	509	0	393	39	22	
9	0	0	0	0	519	506	0	0	39	22	
10	0	0	0	0	512	506	0	347	39	22	
11	0	0	0	0	519	511	0	0	39	22	
12	0	0	0	0	516	508	0	392	39	22	
13	0	0	0	0	523	508	0	49	39	22	
14	0	0	0	0	513	509	0	454	39	22	
15	0	0	0	0	519	511	0	95	39	22	
0	0	0	0	0	511	510	0	361	39	22	
1	0	0	0	0	520	511	0	113	39	22	
2	0	0	0	0	512	510	0	374	39	22	
3	0	0	0	0	520	509	0	128	39	22	
4	0	0	0	0	514	510	0	513	39	22	
5	0	0	0	0	521	507	0	134	39	22	
6	0	0	0	0	515	507	0	511	39	22	
7	0	0	0	0	518	510	0	110	39	22	
8	0	0	0	0	516	511	0	345	39	22	
9	0	0	0	0	520	512	0	127	39	22	
10	0	0	0	0	514	509	0	468	39	22	
11	0	0	0	0	518	511	0	102	39	22	
12	0	0	0	0	514	508	0	408	39	22	
13	0	0	0	0	519	509	0	103	39	22	
14	0	0	0	0	514	510	0	390	39	22	
15	0	0	0	0	517	513	0	141	39	22	
0	0	0	0	0	513	510	0	420	39	22	
1	0	0	0	0	519	512	0	204	39	22	
2	0	0	0	0	511	508	0	585	39	22	
3	0	0	0	0	527	510	0	112	39	22	
4	0	0	0	0	511	506	0	432	39	22	
5	0	0	0	0	520	508	0	110	39	22	
6	0	0	0	0	511	507	0	440	39	22	
7	0	0	0	0	523	509	0	105	39	22	
8	0	0	0	0	511	509	0	473	39	22	
9	0	0	0	0	519	509	0	80	39	22	
10	0	0	0	0	512	508	0	396	39	22	
11	0	0	0	0	520	512	0	102	39	22	
12	0	0	0	0	512	508	0	467	39	22	
13	0	0	0	0	522	508	0	94	39	22	
14	0	0	0	0	511	505	0	412	39	22	
15	0	0	0	0	522	511	0	119	39	22	
0	0	0	0	0	512	507	0	534	39	22	
1	0	0	0	0	524	511	0	119	39	22	
2	0	0	0	0	512	508	0	644	39	22	
3	0	0	0	0	525	512	0	0	39	22	
4	0	0	0	0	511	513	0	558	40	22	
5	0	0	0	0	523	511	0	0	37	22	
6	0	0	0	0	514	506	0	542	40	22	
7	0	0	0	0	523	509	0	0	39	22	
8	0	0	0	0	517	508	0	489	39	22	
9	0	0	0	0	523	509	0	0	39	22	
10	0	0	0	0	518	508	0	486	39	22	
11	0	0	0	0	523	510	0	0	40	22	
12	0	0	0	0	514	510	0	1018	39	22	
13	0	0	0	0	519	510	0	0	39	22	
14	0	0	0	0	512	510	0	1018	39	22	
15	0	0	0	0	523	513	0	0	39	22	
0	0	0	0	0	512	507	0	563	39	22	
1	0	0	0	0	529	512	0	0	39	22	
2	0	0	0	0	512	509	0	358	39	22	
3	0	0	0	0	525	509	0	0	39	22	
4	0	0	0	0	513	510	0	634	39	21	
5	0	0	0	0	527	511	0	0	39	21	
6	0	0	0	0	514	509	0	381	39	21	
7	0	0	0	0	519	511	0	0	39	20	
8	0	0	0	0	507	507	0	599	39	20	
9	0	0	0	0	519	511	0	0	39	20	
10	0	0	0	0	507	509	0	440	39	20	
11	0	0	0	0	527	508	0	0	39	19	
12	0	0	0	0	516	509	0	142	39	19	
13	0	0	0	0	526	512	0	0	39	19	
14	0	0	0	0	515	511	0	0	39	19	
15	0	0	0	0	524	510	0	0	39	19	
0	0	0	0	0	512	512	0	0	39	19	
1	0	0	0	0	523	509	0	0	39	19	
2	0	0	0	0	515	513	0	49	39	18	
3	0	0	0	0	522	509	0	0	39	18	
4	0	0	0	0	513	510	0	122	39	18	
5	0	0	0	0	521	512	0	0	39	18	
6	0	0	0	0	507	510	0	0	39	18	
7	0	0	0	0	519	510	0	0	40	18	
8	0	0	0	0	509	509	0	1018	39	17	
9	0	0	0	0	524	512	0	0	39	16	
10	0	0	0	0	512	511	0	583	39	16	
11	0	0	0	0	527	512	0	0	39	16	
12	0	0	0	0	509	508	0	430	39	16	
13	0	0	0	0	529	513	0	0	39	15	
14	0	0	0	0	518	510	0	222	39	15	
15	0	0	0	0	519	510	0	0	39	15	
0	0	0	0	0	514	510	0	293	39	15	
1	0	0	0	0	522	514	0	0	39	15	
2	0	0	0	0	512	511	0	0	39	15	
3	0	0	0	0	509	509	0	0	39	15	
4	0	0	0	0	506	509	0	129	39	15	
5	0	0	0	0	517	511	0	0	39	15	
6	0	0	0	0	513	507	0	608	39	15	
7	0	0	0	0	523	511	0	0	39	15	
8	0	0	0	0	511	510	0	213	39	15	
9	0	0	0	0	522	510	0	0	39	15	
10	0	0	0	0	512	508	0	0	39	15	
11	0	0	0	0	512	507	0	0	39	15	
12	0	0	0	0	511	507	0	66	39	15	
13	0	0	0	0	518	511	0	0	38	15	
14	0	0	0	0	503	508	0	12	39	15	
15	0	0	0	0	515	509	0	0	39	15	
0	0	0	0	0	519	509	0	478	39	15	
1	0	0	0	0	504	512	0	0	39	15	
2	0	0	0	0	527	507	0	226	39	15	
3	0	0	0	0	522	511	0	0	39	15	
4	0	0	0	0	450	508	0	243	39	15	
5	0	0	0	0	582	510	0	0	39	14	
6	0	0	0	0	551	510	0	115	39	15	
7	0	0	0	0	488	512	0	0	39	15	
8	0	0	0	0	527	509	0	37	39	15	
9	0	0	0	0	561	509	0	0	39	15	
10	0	0	0	0	509	508	0	545	39	15	
11	0	0	0	0	562	512	0	0	39	15	
12	0	0	0	0	492	506	0	519	39	15	
13	0	0	0	0	520	514	0	0	39	16	
14	0	0	0	0	498	510	0	305	39	16	
15	0	0	0	0	539	511	0	0	39	17	
0	0	0	0	0	500	511	0	489	39	16	
1	0	0	0	0	510	511	0	0	39	17	
2	0	0	0	0	474	509	0	0	39	19	
3	0	0	0	0	600	509	0	0	39	19	
4	0	0	0	0	494	506	0	265	39	19	
5	0	0	0	0	500	510	0	0	39	20	
6	0	0	0	0	505	509	0	0	39	20	
7	0	0	0	0	529	511	0	0	40	21	
8	0	0	0	0	488	507	0	291	39	21	
9	0	0	0	0	514	512	0	0	39	22	
10	0	0	0	0	506	511	0	0	39	22	
11	0	0	0	0	522	513	0	0	39	22	
12	0	0	0	0	511	509	0	0	39	22	
13	0	0	0	0	519	513	0	0	39	22	
14	0	0	0	0	517	511	0	0	39	22	
15	0	0	0	0	515	511	0	0	39	22	
0	0	0	0	0	505	506	0	5	39	22	
1	0	0	0	0	515	509	0	0	39	22	
2	0	0	0	0	507	508	0	0	39	22	
3	0	0	0	0	516	511	0	0	39	22	
4	0	0	0	0	528	510	0	90	39	22	
5	0	0	0	0	512	510	0	0	39	22	
6	0	0	0	0	504	509	0	0	39	22	
7	0	0	0	0	549	511	0	0	39	22	
8	0	0	0	0	502	511	0	52	39	22	
9	0	0	0	0	509	512	0	0	39	22	
10	0	0	0	0	510	508	0	0	39	22	
11	0	0	0	0	526	513	0	0	39	22	
12	0	0	0	0	515	511	0	0	39	22	
13	0	0	0	0	517	510	0	0	39	22	
14	0	0	0	0	518	506	0	507	39	22	
15	0	0	0	0	509	509	0	0	39	22	
0	0	0	0	0	507	511	0	173	39	22	
1	0	0	0	0	516	508	0	0	39	22	
2	0	0	0	0	519	507	0	0	39	22	
3	0	0	0	0	514	508	0	0	40	22	
4	0	0	0	0	509	508	0	0	39	22	
5	0	0	0	0	521	510	0	0	39	22	
6	0	0	0	0	511	507	0	0	39	22	
7	0	0	0	0	514	514	0	0	39	22	
8	0	0	0	0	507	508	0	0	39	22	
9	0	0	0	0	523	510	0	0	39	21	
10	0	0	0	0	511	508	0	238	39	21	
11	0	0	0	0	519	511	0	0	39	20	
12	0	0	0	0	510	505	0	0	39	20	
13	0	0	0	0	514	513	0	0	39	19	
14	0	0	0	0	513	511	0	509	39	19	
15	0	0	0	0	520	511	0	0	39	19	
0	0	0	0	0	511	509	0	1018	39	19	
1	0	0	0	0	517	510	0	0	39	19	
2	0	0	0	0	515	506	0	1018	39	18	
3	0	0	0	0	531	515	0	0	39	18	
4	0	0	0	0	504	508	0	722	39	17	
5	0	0	0	0	527	513	0	0	39	16	
6	0	0	0	0	511	508	0	583	39	17	
7	0	0	0	0	515	511	0	0	39	16	
8	0	0	0	0	519	511	0	303	39	16	
9	0	0	0	0	524	512	0	0	39	16	
10	0	0	0	0	513	508	0	0	40	17	
11	0	0	0	0	508	511	0	0	40	17	
12	0	0	0	0	514	512	0	1018	38	17	
13	0	0	0	0	514	512	0	0	39	17	
14	0	0	0	0	512	508	0	436	39	17	
15	0	0	0	0	516	514	0	0	40	17	
0	0	0	0	0	513	510	0	0	39	17	
1	0	0	0	0	521	511	0	0	39	17	
2	0	0	0	0	516	511	0	0	39	17	
3	0	0	0	0	517	511	0	0	39	16	
4	0	0	0	0	511	510	0	693	39	16	
5	0	0	0	0	525	514	0	0	39	17	
6	0	0	0	0	512	510	0	575	39	17	
7	0	0	0	0	517	513	0	0	39	17	
8	0	0	0	0	518	512	0	219	39	17	
9	0	0	0	0	518	512	0	0	39	17	
10	0	0	0	0	510	510	0	1018	39	17	
11	0	0	0	0	523	512	0	0	39	17	
12	0	0	0	0	524	511	0	432	39	17	
13	0	0	0	0	522	511	0	0	39	17	
14	0	0	0	0	509	508	0	61	39	17	
15	0	0	0	0	513	510	0	0	39	17	
0	0	0	0	0	525	508	0	0	39	17	
1	0	0	0	0	515	512	0	0	39	17	
2	0	0	0	0	523	508	0	0	39	17	
3	0	0	0	0	527	512	0	0	39	17	
4	0	0	0	0	497	508	0	0	39	17	
5	0	0	0	0	532	511	0	0	39	17	
6	0	0	0	0	512	507	0	0	39	17	
7	0	0	0	0	513	510	0	0	39	16	
8	0	0	0	0	513	506	0	0	39	17	
9	0	0	0	0	522	508	0	0	39	18	
10	0	0	0	0	497	505	0	0	39	19	
11	0	0	0	0	521	510	0	0	39	19	
12	0	0	0	0	513	510	0	0	39	19	
13	0	0	0	0	516	509	0	0	39	20	
14	0	0	0	0	507	507	0	0	39	20	
15	0	0	0	0	516	509	0	0	40	21	
0	0	0	0	0	495	505	0	384	39	21	
1	0	0	0	0	506	514	0	0	39	22	
2	0	0	0	0	511	510	0	0	39	22	
3	0	0	0	0	518	512	0	0	39	22	
4	0	0	0	0	511	508	0	0	39	22	
5	0	0	0	0	514	512	0	0	39	22	
6	0	0	0	0	511	510	0	0	39	22	
7	0	0	0	0	516	511	0	0	39	22	
8	0	0	0	0	514	507	0	0	39	22	
9	0	0	0	0	519	511	0	0	39	22	
10	0	0	0	0	511	508	0	144	39	22	
11	0	0	0	0	526	511	0	0	39	22	
12	0	0	0	0	512	506	0	0	39	22	
13	0	0	0	0	515	510	0	0	39	22	
14	0	0	0	0	515	511	0	0	39	22	
15	0	0	0	0	517	512	0	0	39	22	
0	0	0	0	0	510	509	0	115	39	22	
1	0	0	0	0	517	510	0	0	39	22	
2	0	0	0	0	515	510	0	148	39	22	
3	0	0	0	0	512	513	0	0	39	22	
4	0	0	0	0	518	510	0	285	39	22	
5	0	0	0	0	516	515	0	0	39	22	
6	0	0	0	0	512	508	0	200	39	22	
7	0	0	0	0	515	511	0	0	39	22	
8	0	0	0	0	512	507	0	140	39	22	
9	0	0	0	0	518	512	0	0	39	22	
10	0	0	0	0	513	508	0	0	39	22	
11	0	0	0	0	514	512	0	0	39	22	
12	0	0	0	0	512	509	0	0	39	21	
13	0	0	0	0	517	508	0	0	39	21	
14	0	0	0	0	513	508	0	0	39	20	
15	0	0	0	0	522	509	0	0	39	20	
0	0	0	0	0	502	511	0	0	39	19	
1	0	0	0	0	522	511	0	0	39	19	
2	0	0	0	0	508	508	0	0	39	19	
3	0	0	0	0	532	515	0	0	39	18	
4	0	0	0	0	512	507	0	0	39	18	
5	0	0	0	0	513	510	0	0	39	18	
6	0	0	0	0	505	508	0	57	39	17	
7	0	0	0	0	533	511	0	0	39	16	
8	0	0	0	0	507	510	0	0	39	16	
9	0	0	0	0	527	513	0	0	39	16	
10	0	0	0	0	515	510	0	161	39	16	
11	0	0	0	0	528	511	0	559	39	17	
12	0	0	0	0	504	510	0	555	39	17	
13	0	0	0	0	519	513	0	0	39	17	
14	0	0	0	0	506	508	0	453	39	17	
15	0	0	0	0	528	509	0	0	39	17	
0	0	0	0	0	510	507	0	161	39	17	
1	0	0	0	0	508	510	0	0	39	17	
2	0	0	0	0	515	508	0	114	39	17	
3	0	0	0	0	525	513	0	0	40	17	
4	0	0	0	0	511	510	0	288	39	18	
5	0	0	0	0	520	513	0	0	39	18	
6	0	0	0	0	507	506	0	558	39	18	
7	0	0	0	0	522	512	0	0	39	18	
8	0	0	0	0	511	508	0	252	39	18	
9	0	0	0	0	520	511	0	0	39	18	
10	0	0	0	0	512	506	0	175	39	18	
11	0	0	0	0	516	512	0	0	39	18	
12	0	0	0	0	513	507	0	533	39	18	
13	0	0	0	0	521	513	0	0	39	18	
14	0	0	0	0	504	510	0	217	39	18	
15	0	0	0	0	503	511	0	0	39	18	
0	0	0	0	0	513	510	0	0	39	18	
1	0	0	0	0	529	513	0	0	39	18	
2	0	0	0	0	529	509	0	7	39	18	
3	0	0	0	0	551	511	0	0	39	18	
4	0	0	0	0	517	507	0	0	39	18	
5	0	0	0	0	526	512	0	0	39	17	
6	0	0	0	0	499	508	0	0	39	17	
7	0	0	0	0	514	509	0	0	39	17	
8	0	0	0	0	518	510	0	0	39	17	
9	0	0	0	0	521	511	0	0	39	17	
10	0	0	0	0	504	508	0	0	39	16	
11	0	0	0	0	513	510	0	0	39	16	
12	0	0	0	0	516	507	0	0	39	17	
13	0	0	0	0	555	510	0	0	39	18	
14	0	0	0	0	489	508	0	0	39	19	
15	0	0	0	0	513	510	0	0	39	19	
0	0	0	0	0	522	506	0	0	39	19	
1	0	0	0	0	543	513	0	0	39	20	
2	0	0	0	0	546	506	0	0	39	20	
3	0	0	0	0	516	512	0	410	40	21	
4	0	0	0	0	502	507	0	54	38	22	
5	0	0	0	0	512	508	0	0	39	22	
6	0	0	0	0	512	507	0	0	39	22	
7	0	0	0	0	518	511	0	383	39	22	
8	0	0	0	0	509	505	0	94	39	22	
9	0	0	0	0	518	513	0	0	39	22	
10	0	0	0	0	514	508	0	0	39	22	
11	0	0	0	0	517	510	0	87	39	22	
12	0	0	0	0	509	509	0	0	39	22	
13	0	0	0	0	513	514	0	0	39	22	
14	0	0	0	0	512	509	0	0	39	22	
15	0	0	0	0	515	510	0	0	39	22	
0	0	0	0	0	512	507	0	0	39	22	
1	0	0	0	0	518	509	0	471	39	22	
2	0	0	0	0	513	510	0	0	39	22	
3	0	0	0	0	523	514	0	693	39	22	
4	0	0	0	0	513	510	0	68	39	22	
5	0	0	0	0	519	515	0	529	39	22	
6	0	0	0	0	517	507	0	0	39	22	
7	0	0	0	0	521	511	0	532	39	22	
8	0	0	0	0	514	509	0	0	39	22	
9	0	0	0	0	515	513	0	566	39	22	
10	0	0	0	0	514	511	0	0	39	22	
11	0	0	0	0	516	513	0	850	39	22	
12	0	0	0	0	516	507	0	0	39	22	
13	0	0	0	0	516	511	0	0	39	22	
14	0	0	0	0	510	506	0	0	40	22	
15	0	0	0	0	503	511	0	475	39	22	
0	0	0	0	0	507	505	0	0	39	21	
1	0	0	0	0	502	508	0	475	39	21	
2	0	0	0	0	525	506	0	0	39	20	
3	0	0	0	0	509	512	0	0	39	20	
4	0	0	0	0	498	508	0	0	39	20	
5	0	0	0	0	532	509	0	493	39	19	
6	0	0	0	0	503	509	0	0	39	19	
7	0	0	0	0	531	509	0	610	40	19	
8	0	0	0	0	510	509	0	0	39	18	
9	0	0	0	0	515	512	0	440	39	18	
10	0	0	0	0	491	510	0	0	39	17	
11	0	0	0	0	532	514	0	779	39	16	
12	0	0	0	0	516	511	0	0	39	15	
13	0	0	0	0	519	512	0	1017	39	16	
14	0	0	0	0	506	507	0	84	40	15	
15	0	0	0	0	519	512	0	1018	39	15	
0	0	0	0	0	508	506	0	361	40	16	
1	0	0	0	0	524	510	0	1018	39	16	
2	0	0	0	0	512	508	0	547	39	17	
3	0	0	0	0	522	512	0	1018	39	17	
4	0	0	0	0	511	507	0	0	39	17	
5	0	0	0	0	516	512	0	1018	39	17	
6	0	0	0	0	509	505	0	123	39	16	
7	0	0	0	0	521	512	0	1018	40	17	
8	0	0	0	0	511	507	0	129	39	17	
9	0	0	0	0	520	512	0	1018	39	17	
10	0	0	0	0	516	509	0	48	39	17	
11	0	0	0	0	513	509	0	1018	39	17	
12	0	0	0	0	508	508	0	615	39	18	
13	0	0	0	0	523	510	0	1018	39	18	
14	0	0	0	0	510	508	0	342	39	18	
15	0	0	0	0	519	512	0	1018	39	18	
0	0	0	0	0	509	507	0	1018	39	18	
1	0	0	0	0	520	512	0	1018	39	18	
2	0	0	0	0	505	509	0	164	39	18	
3	0	0	0	0	524	513	0	1013	39	18	
4	0	0	0	0	499	507	0	0	39	18	
5	0	0	0	0	516	513	0	1018	39	18	
6	0	0	0	0	539	504	0	348	39	18	
7	0	0	0	0	518	511	0	935	39	17	
8	0	0	0	0	540	507	0	0	39	17	
9	0	0	0	0	497	510	0	0	39	17	
10	0	0	0	0	507	506	0	0	39	17	
11	0	0	0	0	513	510	0	0	39	17	
12	0	0	0	0	505	507	0	0	39	17	
13	0	0	0	0	520	509	0	0	39	16	
14	0	0	0	0	494	509	0	0	39	16	
15	0	0	0	0	511	510	0	0	39	17	
0	0	0	0	0	513	509	0	0	39	18	
1	0	0	0	0	561	513	0	0	39	19	
2	0	0	0	0	507	505	0	0	39	19	
3	0	0	0	0	516	510	0	0	39	19	
4	0	0	0	0	508	508	0	0	39	19	
5	0	0	0	0	520	508	0	0	39	20	
6	0	0	0	0	507	505	0	0	39	20	
7	0	0	0	0	518	510	0	519	39	21	
8	0	0	0	0	508	508	0	0	39	21	
9	0	0	0	0	519	511	0	398	39	22	
10	0	0	0	0	512	509	0	0	39	22	
11	0	0	0	0	512	513	0	961	39	22	
12	0	0	0	0	504	508	0	0	39	22	
13	0	0	0	0	522	512	0	835	39	22	
14	0	0	0	0	510	505	0	0	39	22	
15	0	0	0	0	514	511	0	860	39	22	
0	0	0	0	0	508	506	0	0	39	22	
1	0	0	0	0	516	512	0	1018	39	22	
2	0	0	0	0	510	510	0	0	39	22	
3	0	0	0	0	519	512	0	1018	39	22	
4	0	0	0	0	511	507	0	0	39	22	
5	0	0	0	0	520	509	0	743	39	22	
6	0	0	0	0	517	510	0	0	39	22	
7	0	0	0	0	520	513	0	1018	39	22	
8	0	0	0	0	511	508	0	0	39	22	
9	0	0	0	0	520	511	0	1018	39	22	
10	0	0	0	0	511	504	0	0	39	22	
11	0	0	0	0	516	515	0	1018	39	22	
12	0	0	0	0	508	507	0	0	39	22	
13	0	0	0	0	512	511	0	1018	39	22	
14	0	0	0	0	512	505	0	0	39	22	
15	0	0	0	0	522	509	0	1018	39	22	
0	0	0	0	0	515	504	0	0	39	22	
1	0	0	0	0	519	510	0	1018	39	22	
2	0	0	0	0	515	508	0	0	39	22	
3	0	0	0	0	510	510	0	1018	39	22	
4	0	0	0	0	515	508	0	0	39	22	
5	0	0	0	0	504	511	0	1018	39	21	
6	0	0	0	0	517	507	0	0	39	21	
7	0	0	0	0	503	511	0	999	39	20	
8	0	0	0	0	531	510	0	0	39	20	
9	0	0	0	0	504	513	0	1018	39	20	
10	0	0	0	0	505	506	0	0	39	19	
11	0	0	0	0	515	511	0	1018	39	19	
12	0	0	0	0	476	506	0	0	39	19	
13	0	0	0	0	541	508	0	1018	39	19	
14	0	0	0	0	494	507	0	0	39	19	
15	0	0	0	0	521	513	0	1018	39	19	
0	0	0	0	0	508	507	0	0	39	19	
1	0	0	0	0	490	512	0	1018	39	17	
2	0	0	0	0	530	505	0	0	39	17	
3	0	0	0	0	519	511	0	1018	40	16	
4	0	0	0	0	508	508	0	405	39	16	
5	0	0	0	0	556	511	0	1018	39	16	
6	0	0	0	0	500	506	0	0	39	16	
7	0	0	0	0	479	514	0	1018	39	16	
8	0	0	0	0	529	509	0	744	39	16	
9	0	0	0	0	521	512	0	1018	39	16	
10	0	0	0	0	527	508	0	0	39	16	
11	0	0	0	0	512	515	0	1018	39	17	
12	0	0	0	0	518	506	0	90	39	17	
13	0	0	0	0	497	509	0	1018	39	17	
14	0	0	0	0	512	506	0	0	39	17	
15	0	0	0	0	518	513	0	1018	39	17	
0	0	0	0	0	505	508	0	0	39	17	
1	0	0	0	0	520	515	0	1018	39	17	
2	0	0	0	0	509	506	0	0	39	18	
3	0	0	0	0	523	513	0	1018	39	18	
4	0	0	0	0	526	506	0	223	39	18	
5	0	0	0	0	522	515	0	1018	39	18	
6	0	0	0	0	510	509	0	0	39	18	
7	0	0	0	0	514	513	0	1018	39	17	
8	0	0	0	0	510	507	0	0	39	17	
9	0	0	0	0	517	510	0	898	39	17	
10	0	0	0	0	509	508	0	0	39	17	
11	0	0	0	0	515	512	0	1018	39	17	
12	0	0	0	0	487	508	0	0	39	17	
13	0	0	0	0	528	511	0	1018	39	17	
14	0	0	0	0	469	508	0	0	39	17	
15	0	0	0	0	557	512	0	1002	39	18	
0	0	0	0	0	474	507	0	0	39	19	
1	0	0	0	0	495	514	0	1015	39	19	
2	0	0	0	0	519	510	0	0	39	19	
3	0	0	0	0	523	511	0	1018	39	19	
4	0	0	0	0	491	508	0	0	39	19	
5	0	0	0	0	523	514	0	913	39	19	
6	0	0	0	0	486	505	0	0	39	19	
7	0	0	0	0	507	510	0	994	39	20	
8	0	0	0	0	503	503	0	0	39	20	
9	0	0	0	0	526	509	0	1011	39	20	
10	0	0	0	0	503	506	0	0	39	20	
11	0	0	0	0	515	510	0	728	39	20	
12	0	0	0	0	480	507	0	0	39	20	
13	0	0	0	0	507	512	0	1017	39	21	
14	0	0	0	0	503	504	0	0	39	20	
15	0	0	0	0	510	512	0	1018	39	21	
0	0	0	0	0	506	507	0	0	39	21	
1	0	0	0	0	516	511	0	956	39	21	
2	0	0	0	0	516	506	0	0	39	21	
3	0	0	0	0	524	512	0	1018	39	22	
4	0	0	0	0	514	507	0	0	39	23	
5	0	0	0	0	520	510	0	1018	39	23	
6	0	0	0	0	509	504	0	0	38	23	
7	0	0	0	0	513	515	0	1018	40	23	
8	0	0	0	0	518	505	0	0	39	23	
9	0	0	0	0	513	510	0	1018	39	23	
10	0	0	0	0	508	508	0	0	39	23	
11	0	0	0	0	515	509	0	1018	39	23	
12	0	0	0	0	502	507	0	0	39	23	
13	0	0	0	0	506	511	0	1018	39	23	
14	0	0	0	0	505	506	0	0	39	23	
15	0	0	0	0	510	511	0	1018	39	22	
0	0	0	0	0	509	505	0	0	39	22	
1	0	0	0	0	515	510	0	1018	39	21	
2	0	0	0	0	519	505	0	0	39	21	
3	0	0	0	0	522	514	0	1018	39	20	
4	0	0	0	0	528	508	0	0	39	20	
5	0	0	0	0	520	512	0	1018	39	20	
6	0	0	0	0	521	506	0	0	39	20	
7	0	0	0	0	518	511	0	1018	39	20	
8	0	0	0	0	525	508	0	0	39	19	
9	0	0	0	0	516	509	0	1018	39	19	
10	0	0	0	0	519	507	0	0	39	19	
11	0	0	0	0	505	511	0	1018	39	19	
12	0	0	0	0	504	504	0	0	39	19	
13	0	0	0	0	517	512	0	1018	39	19	
14	0	0	0	0	512	508	0	0	39	19	
15	0	0	0	0	524	512	0	1018	39	19	
0	0	0	0	0	495	505	0	0	39	18	
1	0	0	0	0	500	510	0	1018	39	18	
2	0	0	0	0	507	507	0	0	39	18	
3	0	0	0	0	533	511	0	1018	39	16	
4	0	0	0	0	492	509	0	0	39	16	
5	0	0	0	0	507	510	0	1018	39	15	
6	0	0	0	0	513	510	0	0	39	15	
7	0	0	0	0	513	509	0	1018	39	15	
8	0	0	0	0	503	507	0	0	39	15	
9	0	0	0	0	509	512	0	1018	39	15	
10	0	0	0	0	508	504	0	0	39	16	
11	0	0	0	0	523	510	0	1018	39	16	
12	0	0	0	0	522	507	0	0	39	16	
13	0	0	0	0	517	513	0	1018	39	16	
14	0	0	0	0	518	507	0	0	39	15	
15	0	0	0	0	516	512	0	1018	39	15	
0	0	0	0	0	508	507	0	0	39	15	
1	0	0	0	0	517	509	0	1018	39	15	
2	0	0	0	0	497	504	0	0	39	15	
3	0	0	0	0	515	512	0	1018	40	15	
4	0	0	0	0	511	509	0	0	39	15	
5	0	0	0	0	520	514	0	1018	39	15	
6	0	0	0	0	513	506	0	0	39	15	
7	0	0	0	0	514	509	0	1018	39	15	
8	0	0	0	0	510	508	0	0	39	15	
9	0	0	0	0	517	512	0	1018	39	15	
10	0	0	0	0	513	504	0	0	39	15	
11	0	0	0	0	519	511	0	1018	39	15	
12	0	0	0	0	501	504	0	0	39	15	
13	0	0	0	0	520	509	0	1018	39	15	
14	0	0	0	0	506	509	0	0	39	15	
15	0	0	0	0	515	513	0	1018	39	15	
0	0	0	0	0	514	507	0	0	39	15	
1	0	0	0	0	524	512	0	1018	39	15	
2	0	0	0	0	510	509	0	0	39	15	
3	0	0	0	0	517	512	0	1018	39	15	
4	0	0	0	0	500	505	0	0	39	14	
5	0	0	0	0	522	511	0	1018	39	14	
6	0	0	0	0	510	506	0	0	39	14	
7	0	0	0	0	486	511	0	1018	39	15	
8	0	0	0	0	526	505	0	0	39	15	
9	0	0	0	0	504	510	0	1018	39	16	
10	0	0	0	0	532	507	0	0	39	17	
11	0	0	0	0	509	511	0	1018	39	18	
12	0	0	0	0	522	509	0	0	39	18	
13	0	0	0	0	513	512	0	1018	39	18	
14	0	0	0	0	512	503	0	0	39	18	
15	0	0	0	0	526	511	0	1018	39	19	
0	0	0	0	0	550	509	0	0	39	19	
1	0	0	0	0	496	509	0	1018	39	19	
2	0	0	0	0	508	505	0	0	39	19	
3	0	0	0	0	507	510	0	1018	39	19	
4	0	0	0	0	509	508	0	0	39	20	
5	0	0	0	0	518	512	0	1018	39	20	
6	0	0	0	0	509	508	0	0	39	20	
7	0	0	0	0	509	511	0	1018	39	20	
8	0	0	0	0	536	505	0	0	39	20	
9	0	0	0	0	502	512	0	1018	39	20	
10	0	0	0	0	487	507	0	0	39	21	
11	0	0	0	0	470	510	0	1018	39	21	
12	0	0	0	0	527	502	0	0	39	21	
13	0	0	0	0	528	514	0	1018	39	22	
14	0	0	0	0	514	508	0	0	39	22	
15	0	0	0	0	513	513	0	1018	39	23	
0	0	0	0	0	523	506	0	0	39	23	
1	0	0	0	0	522	508	0	1018	39	23	
2	0	0	0	0	521	507	0	0	39	23	
3	0	0	0	0	518	513	0	1018	39	23	
4	0	0	0	0	515	508	0	0	39	23	
5	0	0	0	0	514	511	0	1018	39	23	
6	0	0	0	0	515	506	0	0	39	22	
7	0	0	0	0	538	512	0	1018	39	21	
8	0	0	0	0	518	504	0	0	39	21	
9	0	0	0	0	515	512	0	1018	39	21	
10	0	0	0	0	512	506	0	0	39	21	
11	0	0	0	0	512	510	0	1018	39	20	
12	0	0	0	0	503	508	0	0	39	20	
13	0	0	0	0	519	515	0	1018	39	20	
14	0	0	0	0	510	507	0	0	39	20	
15	0	0	0	0	512	509	0	1018	39	20	
0	0	0	0	0	513	507	0	0	39	20	
1	0	0	0	0	516	514	0	1018	39	19	
2	0	0	0	0	511	506	0	0	39	19	
3	0	0	0	0	503	514	0	1018	39	19	
4	0	0	0	0	507	509	0	0	39	19	
5	0	0	0	0	519	513	0	1018	39	19	
6	0	0	0	0	518	507	0	0	39	19	
7	0	0	0	0	513	508	0	1018	39	18	
8	0	0	0	0	504	504	0	0	39	18	
9	0	0	0	0	517	510	0	1018	39	18	
10	0	0	0	0	515	503	0	0	39	17	
11	0	0	0	0	521	513	0	1018	39	16	
12	0	0	0	0	507	508	0	0	39	16	
13	0	0	0	0	523	510	0	1018	39	16	
14	0	0	0	0	515	508	0	0	39	16	
15	0	0	0	0	515	511	0	1018	39	16	
0	0	0	0	0	526	504	0	0	39	16	
1	0	0	0	0	507	512	0	1018	39	16	
2	0	0	0	0	515	505	0	0	39	16	
3	0	0	0	0	513	510	0	1018	39	16	
4	0	0	0	0	508	508	0	0	39	16	
5	0	0	0	0	516	511	0	1018	38	16	
6	0	0	0	0	519	507	0	0	39	16	
7	0	0	0	0	520	513	0	1018	39	16	
8	0	0	0	0	509	507	0	0	39	16	
9	0	0	0	0	515	512	0	1018	39	16	
10	0	0	0	0	509	505	0	0	39	17	
11	0	0	0	0	519	510	0	1018	39	17	
12	0	0	0	0	500	506	0	0	39	17	
13	0	0	0	0	518	511	0	1018	39	17	
14	0	0	0	0	504	505	0	0	39	17	
15	0	0	0	0	516	514	0	1018	39	17	
0	0	0	0	0	509	505	0	0	39	17	
1	0	0	0	0	515	508	0	1018	39	17	
2	0	0	0	0	516	508	0	0	39	17	
3	0	0	0	0	515	511	0	1018	39	17	
4	0	0	0	0	508	502	0	0	39	17	
5	0	0	0	0	512	511	0	1018	39	17	
6	0	0	0	0	509	503	0	0	39	17	
7	0	0	0	0	521	512	0	1018	39	17	
8	0	0	0	0	513	507	0	0	39	17	
9	0	0	0	0	514	510	0	1018	39	16	
10	0	0	0	0	509	508	0	0	39	16	
11	0	0	0	0	515	511	0	1018	39	16	
12	0	0	0	0	515	506	0	0	39	16	
13	0	0	0	0	520	513	0	1018	39	16	
14	0	0	0	0	523	508	0	0	39	17	
15	0	0	0	0	514	510	0	1018	39	17	
0	0	0	0	0	506	506	0	0	39	18	
1	0	0	0	0	516	511	0	1018	39	18	
2	0	0	0	0	508	508	0	0	39	18	
3	0	0	0	0	519	513	0	1018	39	18	
4	0	0	0	0	504	506	0	0	39	18	
5	0	0	0	0	524	509	0	1018	39	18	
6	0	0	0	0	521	505	0	0	39	19	
7	0	0	0	0	500	510	0	1018	39	19	
8	0	0	0	0	512	505	0	0	39	19	
9	0	0	0	0	522	510	0	1018	39	19	
10	0	0	0	0	503	506	0	0	39	19	
11	0	0	0	0	507	511	0	1018	39	20	
12	0	0	0	0	517	505	0	0	39	20	
13	0	0	0	0	510	511	0	1018	39	20	
14	0	0	0	0	510	505	0	0	39	20	
15	0	0	0	0	513	513	0	1018	39	20	
0	0	0	0	0	517	507	0	0	39	21	
1	0	0	0	0	506	510	0	1018	39	21	
2	0	0	0	0	509	507	0	0	39	22	
3	0	0	0	0	505	512	0	1018	39	23	
4	0	0	0	0	510	507	0	0	39	23	
5	0	0	0	0	497	513	0	1018	39	23	
6	0	0	0	0	509	506	0	0	39	23	
7	0	0	0	0	519	510	0	1018	39	23	
8	0	0	0	0	514	507	0	0	39	23	
9	0	0	0	0	517	512	0	1018	39	23	
10	0	0	0	0	527	508	0	0	39	23	
11	0	0	0	0	515	510	0	1018	39	23	
12	0	0	0	0	523	506	0	0	39	23	
13	0	0	0	0	520	513	0	1018	39	23	
14	0	0	0	0	510	502	0	0	39	22	
15	0	0	0	0	518	508	0	1018	39	21	
0	0	0	0	0	514	502	0	0	39	21	
1	0	0	0	0	511	513	0	1018	39	20	
2	0	0	0	0	518	508	0	0	39	20	
3	0	0	0	0	519	511	0	1018	39	20	
4	0	0	0	0	509	508	0	0	39	20	
5	0	0	0	0	519	510	0	1018	39	20	
6	0	0	0	0	514	508	0	0	39	20	
7	0	0	0	0	513	509	0	1018	39	20	
8	0	0	0	0	516	504	0	0	39	19	
9	0	0	0	0	512	513	0	1018	39	19	
10	0	0	0	0	510	508	0	0	39	19	
11	0	0	0	0	519	513	0	1018	39	19	
12	0	0	0	0	508	505	0	0	39	19	
13	0	0	0	0	512	510	0	1018	39	19	
14	0	0	0	0	508	504	0	0	39	18	
15	0	0	0	0	518	510	0	1018	39	18	
0	0	0	0	0	508	507	0	0	39	19	
1	0	0	0	0	513	510	0	1018	39	18	
2	0	0	0	0	510	507	0	0	39	17	
3	0	0	0	0	517	513	0	1018	39	17	
4	0	0	0	0	492	507	0	0	39	16	
5	0	0	0	0	531	513	0	1018	39	16	
6	0	0	0	0	519	506	0	0	39	16	
7	0	0	0	0	498	512	0	1018	39	16	
8	0	0	0	0	515	506	0	0	39	16	
9	0	0	0	0	515	511	0	1018	39	16	
10	0	0	0	0	513	505	0	0	39	16	
11	0	0	0	0	513	512	0	1018	39	16	
12	0	0	0	0	515	506	0	0	39	16	
13	0	0	0	0	519	508	0	1018	39	16	
14	0	0	0	0	508	506	0	0	39	16	
15	0	0	0	0	519	511	0	1018	39	16	
0	0	0	0	0	515	506	0	0	39	17	
1	0	0	0	0	511	510	0	1018	39	17	
2	0	0	0	0	503	507	0	0	39	17	
3	0	0	0	0	517	511	0	1018	39	17	
4	0	0	0	0	507	503	0	0	39	18	
5	0	0	0	0	511	513	0	1018	39	18	
6	0	0	0	0	503	507	0	0	39	18	
7	0	0	0	0	523	510	0	1018	39	18	
8	0	0	0	0	501	504	0	0	39	18	
9	0	0	0	0	504	512	0	1018	39	19	
10	0	0	0	0	508	506	0	0	39	19	
11	0	0	0	0	524	512	0	1018	39	19	
12	0	0	0	0	510	505	0	0	39	18	
13	0	0	0	0	498	508	0	1018	39	18	
14	0	0	0	0	521	504	0	0	39	18	
15	0	0	0	0	518	512	0	1018	39	18	
0	0	0	0	0	504	505	0	0	39	18	
1	0	0	0	0	508	510	0	1018	39	17	
2	0	0	0	0	504	504	0	0	39	17	
3	0	0	0	0	511	512	0	1018	39	17	
4	0	0	0	0	514	506	0	0	39	17	
5	0	0	0	0	523	513	0	1018	39	17	
6	0	0	0	0	500	505	0	0	39	18	
7	0	0	0	0	514	512	0	1018	39	19	
8	0	0	0	0	508	505	0	0	39	19	
9	0	0	0	0	521	513	0	1018	39	20	
10	0	0	0	0	500	504	0	0	39	20	
11	0	0	0	0	511	512	0	1018	39	20	
12	0	0	0	0	508	503	0	1018	39	20	
13	0	0	0	0	524	515	0	1018	39	20	
14	0	0	0	0	497	506	0	1018	39	20	
15	0	0	0	0	511	510	0	1018	40	20	
0	0	0	0	0	504	501	0	1018	39	20	
1	0	0	0	0	512	515	0	1018	39	20	
2	0	0	0	0	495	501	0	0	39	21	
3	0	0	0	0	533	512	0	1018	39	21	
4	0	0	0	0	514	499	0	0	39	20	
5	0	0	0	0	504	513	0	1018	39	20	
6	0	0	0	0	498	500	0	1018	39	20	
7	0	0	0	0	494	516	0	1018	40	21	
8	0	0	0	0	518	504	0	1018	39	21	
9	0	0	0	0	495	514	0	1018	39	22	
10	0	0	0	0	564	504	0	1018	39	22	
11	0	0	0	0	503	516	0	1018	39	22	
12	0	0	0	0	526	503	0	1018	39	22	
13	0	0	0	0	503	516	0	0	39	22	
14	0	0	0	0	510	502	0	1018	39	22	
15	0	0	0	0	520	512	0	0	39	22	
0	0	0	0	0	504	501	0	1018	39	22	
1	0	0	0	0	523	514	0	0	39	22	
2	0	0	0	0	508	504	0	1018	39	22	
3	0	0	0	0	502	512	0	0	39	22	
4	0	0	0	0	519	503	0	1018	39	22	
5	0	0	0	0	524	515	0	0	39	22	
6	0	0	0	0	542	500	0	0	39	22	
7	0	0	0	0	499	513	0	0	39	22	
8	0	0	0	0	504	499	0	1018	40	22	
9	0	0	0	0	516	515	0	0	39	22	
10	0	0	0	0	512	499	0	1018	39	22	
11	0	0	0	0	515	515	0	0	39	22	
12	0	0	0	0	516	503	0	1018	40	22	
13	0	0	0	0	518	512	0	1018	38	22	
14	0	0	0	0	512	500	0	1018	40	22	
15	0	0	0	0	518	513	0	1018	39	22	
0	0	0	0	0	504	497	0	1018	39	22	
1	0	0	0	0	519	515	0	0	39	23	
2	0	0	0	0	523	503	0	1018	39	23	
3	0	0	0	0	518	514	0	0	39	23	
4	0	0	0	0	512	499	0	1018	39	23	
5	0	0	0	0	515	514	0	0	39	23	
6	0	0	0	0	508	498	0	1018	39	23	
7	0	0	0	0	507	513	0	0	39	23	
8	0	0	0	0	517	499	0	1018	39	21	
9	0	0	0	0	517	515	0	0	39	20	
10	0	0	0	0	515	500	0	1018	39	20	
11	0	0	0	0	511	518	0	0	39	20	
12	0	0	0	0	511	501	0	1018	39	19	
13	0	0	0	0	519	515	0	0	39	20	
14	0	0	0	0	511	501	0	0	39	20	
15	0	0	0	0	516	516	0	0	39	20	
0	0	0	0	0	508	503	0	120	39	20	
1	0	0	0	0	509	515	0	0	39	20	
2	0	0	0	0	509	502	0	0	39	20	
3	0	0	0	0	520	516	0	0	40	20	
4	0	0	0	0	487	501	0	0	39	20	
5	0	0	0	0	515	514	0	0	39	20	
6	0	0	0	0	495	500	0	0	39	20	
7	0	0	0	0	521	517	0	0	39	20	
8	0	0	0	0	458	503	0	0	39	20	
9	0	0	0	0	543	515	0	0	39	20	
10	0	0	0	0	500	501	0	0	40	20	
11	0	0	0	0	523	518	0	1018	39	19	
12	0	0	0	0	490	499	0	0	39	19	
13	0	0	0	0	514	516	0	743	39	19	
14	0	0	0	0	496	502	0	1017	39	19	
15	0	0	0	0	536	514	0	0	39	19	
0	0	0	0	0	516	499	0	1018	39	19	
1	0	0	0	0	531	516	0	0	39	20	
2	0	0	0	0	499	496	0	1018	39	20	
3	0	0	0	0	530	515	0	0	39	20	
4	0	0	0	0	464	500	0	1018	39	20	
5	0	0	0	0	527	513	0	0	39	20	
6	0	0	0	0	493	498	0	1018	39	20	
7	0	0	0	0	492	516	0	0	39	20	
8	0	0	0	0	592	498	0	1018	39	20	
9	0	0	0	0	452	514	0	0	39	20	
10	0	0	0	0	421	501	0	1018	39	20	
11	0	0	0	0	520	515	0	691	39	20	
12	0	0	0	0	581	501	0	1018	39	20	
13	0	0	0	0	445	514	0	0	39	20	
14	0	0	0	0	576	501	0	304	39	20	
15	0	0	0	0	558	515	0	0	39	20	
0	0	0	0	0	470	498	0	1018	39	21	
1	0	0	0	0	508	514	0	0	39	21	
2	0	0	0	0	559	499	0	1018	39	21	
3	0	0	0	0	513	515	0	0	39	21	
4	0	0	0	0	441	497	0	1018	39	22	
5	0	0	0	0	455	515	0	0	39	22	
6	0	0	0	0	457	503	0	1018	39	21	
7	0	0	0	0	607	513	0	909	39	21	
8	0	0	0	0	451	498	0	1018	39	21	
9	0	0	0	0	488	514	0	1018	39	21	
10	0	0	0	0	436	497	0	1018	39	21	
11	0	0	0	0	480	513	0	0	39	21	
12	0	0	0	0	536	504	0	168	39	21	
13	0	0	0	0	455	514	0	0	39	21	
14	0	0	0	0	499	503	0	1018	39	21	
15	0	0	0	0	499	514	0	0	39	21	
0	0	0	0	0	498	499	0	1018	39	21	
1	0	0	0	0	512	514	0	0	39	21	
2	0	0	0	0	493	496	0	1018	39	21	
3	0	0	0	0	511	513	0	0	39	21	
4	0	0	0	0	497	497	0	1017	39	21	
5	0	0	0	0	531	512	0	1018	39	21	
6	0	0	0	0	465	497	0	0	39	21	
7	0	0	0	0	531	519	0	0	39	21	
8	0	0	0	0	519	496	0	963	39	21	
9	0	0	0	0	504	513	0	0	39	21	
10	0	0	0	0	530	502	0	0	39	21	
11	0	0	0	0	508	518	0	0	39	21	
12	0	0	0	0	500	499	0	0	39	21	
13	0	0	0	0	525	514	0	1001	39	21	
14	0	0	0	0	493	499	0	12	39	21	
15	0	0	0	0	529	512	0	1018	39	21	
0	0	0	0	0	505	499	0	1018	39	21	
1	0	0	0	0	527	515	0	1018	39	21	
2	0	0	0	0	498	500	0	1018	39	21	
3	0	0	0	0	525	513	0	1018	39	21	
4	0	0	0	0	541	501	0	0	39	21	
5	0	0	0	0	512	512	0	1018	39	21	
6	0	0	0	0	518	498	0	0	39	21	
7	0	0	0	0	515	512	0	1018	39	21	
8	0	0	0	0	514	499	0	0	39	21	
9	0	0	0	0	517	514	0	1018	39	21	
10	0	0	0	0	511	499	0	0	39	21	
11	0	0	0	0	515	516	0	1018	39	21	
12	0	0	0	0	501	498	0	0	39	21	
13	0	0	0	0	532	514	0	1018	39	21	
14	0	0	0	0	498	497	0	0	39	21	
15	0	0	0	0	525	515	0	0	39	21	
0	0	0	0	0	500	498	0	0	39	21	
1	0	0	0	0	521	514	0	1018	39	21	
2	0	0	0	0	489	497	0	1017	39	21	
3	0	0	0	0	510	512	0	1018	39	21	
4	0	0	0	0	507	501	0	0	39	20	
5	0	0	0	0	519	512	0	1018	39	19	
6	0	0	0	0	506	496	0	0	39	20	
7	0	0	0	0	517	512	0	1018	39	20	
8	0	0	0	0	505	499	0	0	39	20	
9	0	0	0	0	512	513	0	1018	39	20	
10	0	0	0	0	509	497	0	0	39	20	
11	0	0	0	0	524	511	0	0	39	20	
12	0	0	0	0	509	498	0	0	39	20	
13	0	0	0	0	510	515	0	1018	39	20	
14	0	0	0	0	505	499	0	0	39	20	
15	0	0	0	0	516	516	0	1018	39	20	
0	0	0	0	0	505	505	0	0	39	20	
1	0	0	0	0	518	518	0	1018	39	20	
2	0	0	0	0	514	498	0	0	39	20	
3	0	0	0	0	511	514	0	1018	39	20	
4	0	0	0	0	506	496	0	0	39	20	
5	0	0	0	0	518	516	0	1018	39	20	
6	0	0	0	0	503	499	0	0	39	20	
7	0	0	0	0	517	515	0	1018	39	21	
8	0	0	0	0	504	499	0	0	39	21	
9	0	0	0	0	518	515	0	1018	39	21	
10	0	0	0	0	502	497	0	0	39	21	
11	0	0	0	0	515	511	0	1018	39	21	
12	0	0	0	0	507	495	0	0	39	21	
13	0	0	0	0	518	516	0	1018	39	21	
14	0	0	0	0	505	498	0	0	39	21	
15	0	0	0	0	516	513	0	1018	39	21	
0	0	0	0	0	506	498	0	0	39	21	
1	0	0	0	0	517	513	0	1018	39	21	
2	0	0	0	0	484	501	0	0	39	21	
3	0	0	0	0	506	515	0	1018	40	20	
4	0	0	0	0	512	499	0	0	39	20	
5	0	0	0	0	509	514	0	1018	39	20	
6	0	0	0	0	501	499	0	0	39	20	
7	0	0	0	0	522	515	0	1018	39	20	
8	0	0	0	0	517	497	0	0	39	20	
9	0	0	0	0	467	515	0	1018	39	20	
10	0	0	0	0	551	497	0	0	39	19	
11	0	0	0	0	512	513	0	1018	39	19	
12	0	0	0	0	470	498	0	0	39	19	
13	0	0	0	0	508	518	0	1018	39	20	
14	0	0	0	0	496	498	0	0	39	20	
15	0	0	0	0	538	515	0	1018	39	21	
0	0	0	0	0	540	496	0	0	39	21	
1	0	0	0	0	499	513	0	1018	39	21	
2	0	0	0	0	488	498	0	0	39	21	
3	0	0	0	0	612	511	0	1018	39	21	
4	0	0	0	0	553	499	0	0	39	21	
5	0	0	0	0	528	516	0	1018	39	21	
6	0	0	0	0	470	500	0	0	39	21	
7	0	0	0	0	497	514	0	1018	39	21	
8	0	0	0	0	574	499	0	0	39	21	
9	0	0	0	0	396	516	0	1018	39	21	
10	0	0	0	0	441	499	0	0	39	21	
11	0	0	0	0	517	515	0	1018	39	21	
12	0	0	0	0	335	496	0	0	39	21	
13	0	0	0	0	542	514	0	1018	39	21	
14	0	0	0	0	704	499	0	0	39	20	
15	0	0	0	0	500	514	0	1018	39	20	
0	0	0	0	0	535	497	0	0	39	20	
1	0	0	0	0	468	515	0	1018	39	20	
2	0	0	0	0	369	499	0	0	39	20	
3	0	0	0	0	489	515	0	1018	39	19	
4	0	0	0	0	471	498	0	0	39	19	
5	0	0	0	0	568	517	0	1018	39	19	
6	0	0	0	0	605	496	0	0	39	19	
7	0	0	0	0	513	513	0	1018	39	19	
8	0	0	0	0	508	497	0	0	39	19	
9	0	0	0	0	413	513	0	1018	39	19	
10	0	0	0	0	506	497	0	0	39	19	
11	0	0	0	0	490	516	0	1018	39	19	
12	0	0	0	0	483	497	0	0	39	19	
13	0	0	0	0	465	515	0	1018	39	19	
14	0	0	0	0	493	499	0	0	39	19	
15	0	0	0	0	463	512	0	1018	39	19	
0	0	0	0	0	556	497	0	0	39	19	
1	0	0	0	0	548	513	0	1018	39	19	
2	0	0	0	0	465	500	0	0	39	19	
3	0	0	0	0	566	514	0	1018	39	19	
4	0	0	0	0	511	499	0	0	39	19	
5	0	0	0	0	539	515	0	1018	39	19	
6	0	0	0	0	503	499	0	0	39	19	
7	0	0	0	0	510	513	0	1018	39	19	
8	0	0	0	0	508	500	0	0	39	19	
9	0	0	0	0	517	514	0	1018	39	19	
10	0	0	0	0	510	497	0	0	39	19	
11	0	0	0	0	513	512	0	1018	39	19	
12	0	0	0	0	509	496	0	0	39	19	
13	0	0	0	0	510	512	0	1018	39	19	
14	0	0	0	0	506	498	0	0	39	19	
15	0	0	0	0	508	512	0	1018	39	19	
0	0	0	0	0	505	499	0	0	39	19	
1	0	0	0	0	516	515	0	1018	39	19	
2	0	0	0	0	511	501	0	0	39	19	
3	0	0	0	0	520	516	0	1018	39	19	
4	0	0	0	0	508	498	0	0	39	20	
5	0	0	0	0	516	514	0	1018	39	20	
6	0	0	0	0	505	498	0	0	39	20	
7	0	0	0	0	525	516	0	1018	39	21	
8	0	0	0	0	511	499	0	0	39	20	
9	0	0	0	0	511	512	0	1018	39	20	
10	0	0	0	0	508	499	0	0	39	20	
11	0	0	0	0	508	515	0	1018	39	20	
12	0	0	0	0	505	500	0	0	39	20	
13	0	0	0	0	512	512	0	1018	39	20	
14	0	0	0	0	524	499	0	0	39	20	
15	0	0	0	0	507	513	0	1018	39	20	
0	0	0	0	0	507	497	0	0	39	20	
1	0	0	0	0	519	516	0	1018	39	20	
2	0	0	0	0	518	499	0	0	39	20	
3	0	0	0	0	518	514	0	1018	39	20	
4	0	0	0	0	497	497	0	0	39	20	
5	0	0	0	0	516	513	0	1018	39	20	
6	0	0	0	0	500	498	0	0	39	19	
7	0	0	0	0	511	517	0	1018	39	19	
8	0	0	0	0	519	500	0	0	39	19	
9	0	0	0	0	522	515	0	1018	39	19	
10	0	0	0	0	504	499	0	0	39	19	
11	0	0	0	0	517	513	0	1018	39	19	
12	0	0	0	0	509	498	0	0	39	19	
13	0	0	0	0	516	513	0	1018	39	19	
14	0	0	0	0	510	498	0	0	39	19	
15	0	0	0	0	518	514	0	1018	39	19	
0	0	0	0	0	499	501	0	0	39	19	
1	0	0	0	0	510	515	0	1018	39	19	
2	0	0	0	0	515	498	0	0	39	19	
3	0	0	0	0	515	510	0	1018	39	19	
4	0	0	0	0	510	498	0	0	39	20	
5	0	0	0	0	516	514	0	1018	39	20	
6	0	0	0	0	506	499	0	0	39	20	
7	0	0	0	0	515	512	0	1018	39	20	
8	0	0	0	0	508	500	0	0	39	20	
9	0	0	0	0	516	515	0	1018	39	20	
10	0	0	0	0	503	497	0	0	39	20	
11	0	0	0	0	515	515	0	1018	39	20	
12	0	0	0	0	500	499	0	0	39	20	
13	0	0	0	0	515	514	0	1018	39	20	
14	0	0	0	0	499	502	0	0	39	20	
15	0	0	0	0	523	514	0	1018	39	20	
0	0	0	0	0	498	499	0	0	39	20	
1	0	0	0	0	493	511	0	1018	39	20	
2	0	0	0	0	490	498	0	0	39	20	
3	0	0	0	0	560	515	0	1018	39	20	
4	0	0	0	0	483	499	0	0	39	20	
5	0	0	0	0	482	515	0	1018	39	20	
6	0	0	0	0	520	498	0	0	39	20	
7	0	0	0	0	487	514	0	1018	39	19	
8	0	0	0	0	511	499	0	0	39	19	
9	0	0	0	0	553	510	0	1018	39	19	
10	0	0	0	0	469	496	0	0	39	19	
11	0	0	0	0	512	514	0	1018	39	19	
12	0	0	0	0	480	496	0	0	39	20	
13	0	0	0	0	525	511	0	1018	39	21	
14	0	0	0	0	500	497	0	0	39	21	
15	0	0	0	0	499	511	0	1018	39	21	
0	0	0	0	0	507	500	0	0	39	21	
1	0	0	0	0	481	511	0	1018	39	21	
2	0	0	0	0	512	499	0	0	39	21	
3	0	0	0	0	525	514	0	1018	39	21	
4	0	0	0	0	474	499	0	0	39	20	
5	0	0	0	0	575	513	0	1018	39	20	
6	0	0	0	0	372	496	0	0	39	20	
7	0	0	0	0	499	513	0	1018	40	20	
8	0	0	0	0	504	499	0	0	39	20	
9	0	0	0	0	449	514	0	1018	39	20	
10	0	0	0	0	576	496	0	0	39	20	
11	0	0	0	0	598	513	0	1018	40	20	
12	0	0	0	0	628	498	0	0	39	20	
13	0	0	0	0	414	515	0	1018	39	20	
14	0	0	0	0	505	499	0	0	39	20	
15	0	0	0	0	477	517	0	1018	39	20	
0	0	0	0	0	383	500	0	0	39	20	
1	0	0	0	0	497	515	0	1018	38	19	
2	0	0	0	0	583	498	0	0	39	19	
3	0	0	0	0	508	513	0	1018	39	19	
4	0	0	0	0	454	499	0	0	39	19	
5	0	0	0	0	538	514	0	1018	39	19	
6	0	0	0	0	462	498	0	0	39	19	
7	0	0	0	0	523	514	0	1018	39	19	
8	0	0	0	0	550	498	0	0	39	19	
9	0	0	0	0	474	513	0	1018	39	19	
10	0	0	0	0	502	500	0	0	39	19	
11	0	0	0	0	514	515	0	1018	39	19	
12	0	0	0	0	515	500	0	0	39	19	
13	0	0	0	0	509	512	0	1018	39	19	
14	0	0	0	0	536	498	0	0	39	19	
15	0	0	0	0	586	516	0	1018	39	19	
0	0	0	0	0	458	499	0	0	39	19	
1	0	0	0	0	462	518	0	1018	39	19	
2	0	0	0	0	457	501	0	0	39	19	
3	0	0	0	0	522	513	0	1018	39	19	
4	0	0	0	0	504	496	0	0	39	19	
5	0	0	0	0	509	511	0	1018	39	19	
6	0	0	0	0	525	498	0	0	39	19	
7	0	0	0	0	503	514	0	1018	39	19	
8	0	0	0	0	504	498	0	0	39	19	
9	0	0	0	0	536	515	0	1018	39	19	
10	0	0	0	0	508	500	0	0	39	19	
11	0	0	0	0	514	515	0	1018	39	19	
12	0	0	0	0	507	499	0	0	39	19	
13	0	0	0	0	516	514	0	1018	39	19	
14	0	0	0	0	508	502	0	0	39	19	
15	0	0	0	0	522	515	0	1018	40	19	
0	0	0	0	0	510	499	0	0	40	19	
1	0	0	0	0	520	512	0	1018	39	19	
2	0	0	0	0	510	496	0	0	39	20	
3	0	0	0	0	515	514	0	1018	39	19	
4	0	0	0	0	511	498	0	0	39	19	
5	0	0	0	0	517	512	0	1018	39	19	
6	0	0	0	0	510	499	0	0	39	19	
7	0	0	0	0	513	512	0	1018	39	19	
8	0	0	0	0	508	494	0	0	39	20	
9	0	0	0	0	513	513	0	1018	39	20	
10	0	0	0	0	512	499	0	0	39	20	
11	0	0	0	0	515	510	0	1018	39	20	
12	0	0	0	0	509	498	0	0	39	20	
13	0	0	0	0	516	512	0	1018	39	20	
14	0	0	0	0	504	499	0	0	39	20	
15	0	0	0	0	507	513	0	1018	39	20	
0	0	0	0	0	513	502	0	0	39	20	
1	0	0	0	0	512	514	0	1018	39	20	
2	0	0	0	0	504	500	0	0	39	20	
3	0	0	0	0	510	514	0	1018	39	20	
4	0	0	0	0	503	498	0	0	39	20	
5	0	0	0	0	521	513	0	1018	39	20	
6	0	0	0	0	510	498	0	0	39	20	
7	0	0	0	0	516	511	0	1018	39	20	
8	0	0	0	0	501	500	0	0	39	20	
9	0	0	0	0	518	515	0	1018	39	19	
10	0	0	0	0	518	499	0	0	39	19	
11	0	0	0	0	517	517	0	1018	39	19	
12	0	0	0	0	508	497	0	0	39	19	
13	0	0	0	0	512	511	0	1018	39	19	
14	0	0	0	0	513	498	0	0	39	19	
15	0	0	0	0	516	518	0	1018	39	19	
0	0	0	0	0	511	501	0	0	39	19	
1	0	0	0	0	510	513	0	1018	39	19	
2	0	0	0	0	505	498	0	0	39	19	
3	0	0	0	0	512	510	0	1018	39	19	
4	0	0	0	0	510	496	0	0	39	19	
5	0	0	0	0	513	512	0	1018	39	19	
6	0	0	0	0	505	499	0	0	39	19	
7	0	0	0	0	513	513	0	1018	39	19	
8	0	0	0	0	507	499	0	0	39	19	
9	0	0	0	0	516	514	0	1018	39	19	
10	0	0	0	0	504	499	0	0	39	20	
11	0	0	0	0	513	512	0	1018	39	20	
12	0	0	0	0	502	497	0	0	39	20	
13	0	0	0	0	517	514	0	1018	39	20	
14	0	0	0	0	497	500	0	0	39	20	
15	0	0	0	0	518	513	0	1018	39	20	
0	0	0	0	0	496	503	0	0	39	20	
1	0	0	0	0	511	514	0	1018	39	20	
2	0	0	0	0	481	502	0	0	39	20	
3	0	0	0	0	511	515	0	1018	39	21	
4	0	0	0	0	485	500	0	0	39	21	
5	0	0	0	0	541	510	0	1018	39	21	
6	0	0	0	0	480	498	0	0	39	21	
7	0	0	0	0	511	513	0	1018	39	21	
8	0	0	0	0	498	498	0	0	39	21	
9	0	0	0	0	535	512	0	1018	39	21	
10	0	0	0	0	514	497	0	0	39	21	
11	0	0	0	0	551	513	0	1018	39	20	
12	0	0	0	0	489	498	0	0	39	20	
13	0	0	0	0	506	510	0	1018	39	20	
14	0	0	0	0	517	497	0	0	39	20	
15	0	0	0	0	523	511	0	1018	39	20	
0	0	0	0	0	505	497	0	0	39	20	
1	0	0	0	0	517	511	0	1018	39	19	
2	0	0	0	0	505	497	0	0	39	19	
3	0	0	0	0	512	511	0	1018	39	19	
4	0	0	0	0	475	500	0	0	39	19	
5	0	0	0	0	602	514	0	1018	39	19	
6	0	0	0	0	419	498	0	0	39	20	
7	0	0	0	0	486	511	0	1018	39	21	
8	0	0	0	0	588	499	0	0	39	21	
9	0	0	0	0	453	512	0	1018	39	21	
10	0	0	0	0	605	497	0	0	39	21	
11	0	0	0	0	551	512	0	1018	39	21	
12	0	0	0	0	413	500	0	0	39	21	
13	0	0	0	0	624	512	0	1018	39	21	
14	0	0	0	0	601	502	0	0	39	21	
15	0	0	0	0	535	516	0	1018	39	21	
0	0	0	0	0	511	500	0	0	39	21	
1	0	0	0	0	526	514	0	1018	39	21	
2	0	0	0	0	393	499	0	0	39	20	
3	0	0	0	0	588	515	0	1018	39	21	
4	0	0	0	0	467	500	0	0	39	21	
5	0	0	0	0	634	512	0	1018	39	20	
6	0	0	0	0	732	499	0	0	39	20	
7	0	0	0	0	318	515	0	1018	40	20	
8	0	0	0	0	296	501	0	0	39	20	
9	0	0	0	0	521	515	0	1018	39	20	
10	0	0	0	0	480	499	0	0	39	20	
11	0	0	0	0	382	511	0	1018	39	20	
12	0	0	0	0	455	501	0	0	39	20	
13	0	0	0	0	758	513	0	1018	39	20	
14	0	0	0	0	447	499	0	0	39	20	
15	0	0	0	0	479	513	0	1018	39	20	
0	0	0	0	0	548	499	0	0	39	20	
1	0	0	0	0	736	511	0	1018	39	20	
2	0	0	0	0	664	499	0	0	39	20	
3	0	0	0	0	472	511	0	1018	39	20	
4	0	0	0	0	445	501	0	0	39	20	
5	0	0	0	0	547	513	0	1018	39	20	
6	0	0	0	0	463	498	0	0	39	20	
7	0	0	0	0	606	511	0	1018	39	20	
8	0	0	0	0	531	500	0	0	39	20	
9	0	0	0	0	514	514	0	1018	39	20	
10	0	0	0	0	497	500	0	0	39	20	
11	0	0	0	0	450	513	0	1018	39	20	
12	0	0	0	0	481	500	0	0	39	20	
13	0	0	0	0	579	509	0	1018	39	20	
14	0	0	0	0	401	498	0	0	39	20	
15	0	0	0	0	591	514	0	1018	39	20	
0	0	0	0	0	499	501	0	0	39	20	
1	0	0	0	0	510	515	0	1018	39	20	
2	0	0	0	0	497	500	0	0	39	20	
3	0	0	0	0	537	515	0	1018	39	20	
4	0	0	0	0	506	497	0	0	39	20	
5	0	0	0	0	508	513	0	1018	39	20	
6	0	0	0	0	500	500	0	0	39	20	
7	0	0	0	0	506	511	0	1018	39	20	
8	0	0	0	0	497	499	0	0	39	20	
9	0	0	0	0	516	510	0	1018	39	20	
10	0	0	0	0	520	499	0	0	39	20	
11	0	0	0	0	509	511	0	1018	39	20	
12	0	0	0	0	508	501	0	0	39	20	
13	0	0	0	0	508	515	0	1018	39	20	
14	0	0	0	0	506	498	0	0	39	21	
15	0	0	0	0	506	513	0	1018	39	21	
0	0	0	0	0	502	497	0	0	39	21	
1	0	0	0	0	531	512	0	1018	39	21	
2	0	0	0	0	507	500	0	0	39	21	
3	0	0	0	0	515	512	0	1018	39	21	
4	0	0	0	0	499	498	0	0	39	21	
5	0	0	0	0	518	514	0	1018	39	20	
6	0	0	0	0	500	501	0	0	39	19	
7	0	0	0	0	512	512	0	1018	39	19	
8	0	0	0	0	500	498	0	0	39	18	
9	0	0	0	0	510	512	0	1018	39	18	
10	0	0	0	0	504	501	0	0	39	18	
11	0	0	0	0	508	515	0	1018	39	19	
12	0	0	0	0	506	503	0	0	39	19	
13	0	0	0	0	514	513	0	1018	39	19	
14	0	0	0	0	510	502	0	0	39	19	
15	0	0	0	0	499	509	0	1018	39	19	
0	0	0	0	0	501	502	0	0	39	19	
1	0	0	0	0	511	513	0	1018	39	19	
2	0	0	0	0	499	502	0	0	39	20	
3	0	0	0	0	513	514	0	1018	39	20	
4	0	0	0	0	496	501	0	0	39	20	
5	0	0	0	0	525	509	0	1018	39	20	
6	0	0	0	0	500	500	0	0	39	20	
7	0	0	0	0	521	512	0	1018	39	20	
8	0	0	0	0	504	501	0	0	39	20	
9	0	0	0	0	525	511	0	1018	39	20	
10	0	0	0	0	499	502	0	0	39	20	
11	0	0	0	0	525	514	0	1018	39	20	
12	0	0	0	0	495	501	0	0	39	20	
13	0	0	0	0	518	512	0	1018	39	20	
14	0	0	0	0	497	499	0	0	39	21	
15	0	0	0	0	513	512	0	1018	39	21	
0	0	0	0	0	498	498	0	0	39	21	
1	0	0	0	0	519	513	0	1018	39	21	
2	0	0	0	0	493	502	0	0	39	21	
3	0	0	0	0	516	511	0	1018	39	21	
4	0	0	0	0	500	498	0	0	39	21	
5	0	0	0	0	515	512	0	1018	39	21	
6	0	0	0	0	491	501	0	0	39	21	
7	0	0	0	0	513	512	0	1018	39	21	
8	0	0	0	0	490	500	0	0	39	21	
9	0	0	0	0	520	515	0	1018	39	21	
10	0	0	0	0	504	500	0	0	39	21	
11	0	0	0	0	518	511	0	1018	39	21	
12	0	0	0	0	461	500	0	0	39	21	
13	0	0	0	0	453	512	0	1018	39	21	
14	0	0	0	0	464	500	0	0	39	21	
15	0	0	0	0	556	513	0	1018	39	20	
0	0	0	0	0	427	501	0	0	39	20	
1	0	0	0	0	386	513	0	1018	39	20	
2	0	0	0	0	515	502	0	0	39	20	
3	0	0	0	0	498	512	0	1018	39	20	
4	0	0	0	0	448	501	0	0	39	20	
5	0	0	0	0	587	513	0	1018	39	20	
6	0	0	0	0	542	503	0	0	39	20	
7	0	0	0	0	431	512	0	1018	39	20	
8	0	0	0	0	455	498	0	0	39	21	
9	0	0	0	0	439	511	0	1018	39	21	
10	0	0	0	0	485	497	0	0	39	21	
11	0	0	0	0	665	510	0	1018	39	21	
12	0	0	0	0	455	501	0	0	39	21	
13	0	0	0	0	597	512	0	1018	39	21	
14	0	0	0	0	534	501	0	0	39	21	
15	0	0	0	0	489	513	0	1018	39	21	
0	0	0	0	0	491	499	0	0	39	21	
1	0	0	0	0	534	511	0	1018	39	21	
2	0	0	0	0	479	501	0	0	39	21	
3	0	0	0	0	530	511	0	1018	39	21	
4	0	0	0	0	448	500	0	0	39	21	
5	0	0	0	0	496	514	0	1018	39	21	
6	0	0	0	0	585	503	0	0	39	21	
7	0	0	0	0	569	515	0	1018	39	21	
8	0	0	0	0	460	504	0	0	39	21	
9	0	0	0	0	516	513	0	1018	39	21	
10	0	0	0	0	468	500	0	0	39	21	
11	0	0	0	0	457	512	0	1018	39	21	
12	0	0	0	0	490	499	0	0	39	20	
13	0	0	0	0	572	514	0	1018	39	20	
14	0	0	0	0	477	501	0	0	39	20	
15	0	0	0	0	504	511	0	1018	39	20	
0	0	0	0	0	470	500	0	0	39	20	
1	0	0	0	0	450	513	0	1018	39	20	
2	0	0	0	0	625	501	0	0	39	20	
3	0	0	0	0	488	511	0	1018	39	20	
4	0	0	0	0	497	498	0	0	39	20	
5	0	0	0	0	523	511	0	1018	39	20	
6	0	0	0	0	473	499	0	0	39	20	
7	0	0	0	0	554	512	0	1018	39	20	
8	0	0	0	0	451	503	0	0	39	20	
9	0	0	0	0	553	512	0	1018	39	20	
10	0	0	0	0	500	504	0	0	39	20	
11	0	0	0	0	508	509	0	1018	39	20	
12	0	0	0	0	515	500	0	0	39	20	
13	0	0	0	0	510	513	0	1018	39	20	
14	0	0	0	0	514	499	0	0	39	20	
15	0	0	0	0	496	512	0	1018	39	20	
0	0	0	0	0	602	501	0	0	39	20	
1	0	0	0	0	507	515	0	1018	39	20	
2	0	0	0	0	516	501	0	0	39	20	
3	0	0	0	0	498	510	0	1018	39	20	
4	0	0	0	0	508	497	0	0	39	20	
5	0	0	0	0	524	510	0	1018	39	20	
6	0	0	0	0	501	501	0	0	39	20	
7	0	0	0	0	505	512	0	1018	39	20	
8	0	0	0	0	504	503	0	0	39	20	
9	0	0	0	0	462	514	0	1018	39	20	
10	0	0	0	0	497	498	0	0	39	20	
11	0	0	0	0	506	511	0	1018	39	20	
12	0	0	0	0	489	499	0	0	39	20	
13	0	0	0	0	496	513	0	1018	39	20	
14	0	0	0	0	544	502	0	0	39	20	
15	0	0	0	0	487	510	0	1018	39	20	
0	0	0	0	0	454	499	0	0	39	20	
1	0	0	0	0	506	513	0	1018	39	20	
2	0	0	0	0	500	503	0	0	39	20	
3	0	0	0	0	515	513	0	1018	39	20	
4	0	0	0	0	509	498	0	0	39	20	
5	0	0	0	0	513	509	0	1018	39	20	
6	0	0	0	0	504	500	0	0	39	20	
7	0	0	0	0	511	512	0	1018	39	20	
8	0	0	0	0	508	502	0	0	39	20	
9	0	0	0	0	513	512	0	1018	39	20	
10	0	0	0	0	504	500	0	0	39	20	
11	0	0	0	0	510	511	0	1018	39	20	
12	0	0	0	0	511	500	0	0	39	20	
13	0	0	0	0	511	511	0	1018	39	20	
14	0	0	0	0	513	500	0	0	39	20	
15	0	0	0	0	515	513	0	1018	39	20	
0	0	0	0	0	509	504	0	0	39	20	
1	0	0	0	0	513	512	0	1018	39	20	
2	0	0	0	0	513	504	0	0	39	20	
3	0	0	0	0	516	511	0	1018	39	20	
4	0	0	0	0	516	500	0	0	39	20	
5	0	0	0	0	514	511	0	1018	39	20	
6	0	0	0	0	516	503	0	0	39	20	
7	0	0	0	0	516	513	0	1018	39	20	
8	0	0	0	0	511	501	0	0	39	21	
9	0	0	0	0	508	513	0	1018	39	21	
10	0	0	0	0	515	501	0	0	39	21	
11	0	0	0	0	514	511	0	1018	39	21	
12	0	0	0	0	508	501	0	0	39	21	
13	0	0	0	0	505	513	0	1018	39	21	
14	0	0	0	0	508	504	0	0	39	20	
15	0	0	0	0	512	513	0	1018	39	20	
0	0	0	0	0	522	499	0	0	39	20	
1	0	0	0	0	509	511	0	1018	39	20	
2	0	0	0	0	508	500	0	0	39	19	
3	0	0	0	0	513	511	0	1018	39	19	
4	0	0	0	0	510	503	0	0	39	19	
5	0	0	0	0	536	513	0	1018	39	19	
6	0	0	0	0	505	502	0	0	39	19	
7	0	0	0	0	504	509	0	1018	39	19	
8	0	0	0	0	505	500	0	0	39	19	
9	0	0	0	0	516	513	0	1018	39	19	
10	0	0	0	0	503	503	0	0	39	20	
11	0	0	0	0	510	512	0	1018	39	20	
12	0	0	0	0	502	501	0	0	39	20	
13	0	0	0	0	513	511	0	1018	39	20	
14	0	0	0	0	508	499	0	0	39	20	
15	0	0	0	0	506	509	0	1018	39	20	
0	0	0	0	0	508	501	0	0	39	20	
1	0	0	0	0	517	511	0	1018	39	20	
2	0	0	0	0	505	503	0	0	39	20	
3	0	0	0	0	512	509	0	1018	39	20	
4	0	0	0	0	509	504	0	0	39	20	
5	0	0	0	0	517	509	0	1018	39	20	
6	0	0	0	0	507	503	0	0	39	21	
7	0	0	0	0	515	512	0	1018	39	21	
8	0	0	0	0	508	504	0	0	39	21	
9	0	0	0	0	513	512	0	1018	39	21	
10	0	0	0	0	502	502	0	0	39	21	
11	0	0	0	0	515	508	0	1018	39	21	
12	0	0	0	0	508	504	0	0	39	21	
13	0	0	0	0	510	510	0	0	39	21	
14	0	0	0	0	508	507	0	0	39	21	
15	0	0	0	0	511	510	0	0	39	21	
0	0	0	0	0	511	504	0	0	39	21	
1	0	0	0	0	508	510	0	0	39	21	
2	0	0	0	0	511	506	0	0	39	21	
3	0	0	0	0	511	510	0	0	39	21	
4	0	0	0	0	510	508	0	0	39	21	
5	0	0	0	0	512	508	0	0	39	21	
6	0	0	0	0	513	507	0	0	39	21	
7	0	0	0	0	511	510	0	447	39	21	
8	0	0	0	0	511	508	0	0	39	21	
9	0	0	0	0	515	508	0	1018	39	21	
10	0	0	0	0	509	508	0	0	39	21	
11	0	0	0	0	511	509	0	1018	39	21	
12	0	0	0	0	511	505	0	0	39	21	
13	0	0	0	0	513	508	0	1018	39	21	
14	0	0	0	0	513	508	0	0	39	21	
15	0	0	0	0	510	509	0	1018	39	21	
0	0	0	0	0	512	504	0	0	39	21	
1	0	0	0	0	512	508	0	1018	39	21	
2	0	0	0	0	512	507	0	0	39	21	
3	0	0	0	0	512	512	0	1018	39	21	
4	0	0	0	0	513	508	0	0	39	21	
5	0	0	0	0	513	511	0	1018	39	21	
6	0	0	0	0	510	505	0	0	39	21	
7	0	0	0	0	511	511	0	1018	39	21	
8	0	0	0	0	511	504	0	0	39	21	
9	0	0	0	0	512	508	0	1018	39	21	
10	0	0	0	0	508	501	0	0	39	21	
11	0	0	0	0	513	509	0	1018	39	21	
12	0	0	0	0	512	507	0	0	39	21	
13	0	0	0	0	513	511	0	1018	39	21	
14	0	0	0	0	512	504	0	0	39	21	
15	0	0	0	0	510	511	0	1018	39	21	
0	0	0	0	0	513	504	0	0	39	21	
1	0	0	0	0	512	506	0	1018	39	21	
2	0	0	0	0	512	507	0	0	39	21	
3	0	0	0	0	512	509	0	1018	39	21	
4	0	0	0	0	513	504	0	0	39	21	
5	0	0	0	0	513	508	0	1018	39	21	
6	0	0	0	0	512	505	0	0	39	21	
7	0	0	0	0	511	511	0	1018	39	21	
8	0	0	0	0	515	505	0	0	39	21	
9	0	0	0	0	513	508	0	1018	39	21	
10	0	0	0	0	512	504	0	0	39	21	
11	0	0	0	0	509	509	0	710	39	21	
12	0	0	0	0	513	509	0	0	39	21	
13	0	0	0	0	508	508	0	1018	39	21	
14	0	0	0	0	514	505	0	0	39	21	
15	0	0	0	0	513	509	0	1018	39	21	
0	0	0	0	0	514	504	0	0	39	21	
1	0	0	0	0	512	510	0	1018	39	21	
2	0	0	0	0	511	509	0	0	39	21	
3	0	0	0	0	511	507	0	1018	39	21	
4	0	0	0	0	516	505	0	0	39	21	
5	0	0	0	0	511	508	0	1018	39	21	
6	0	0	0	0	512	510	0	0	39	21	
7	0	0	0	0	511	510	0	1018	39	21	
8	0	0	0	0	515	508	0	0	39	21	
9	0	0	0	0	514	508	0	1018	39	21	
10	0	0	0	0	512	505	0	0	39	21	
11	0	0	0	0	511	507	0	1018	39	21	
12	0	0	0	0	513	504	0	0	39	21	
13	0	0	0	0	512	510	0	1018	39	21	
14	0	0	0	0	513	508	0	0	39	21	
15	0	0	0	0	510	506	0	1018	39	21	
0	0	0	0	0	516	508	0	0	39	21	
1	0	0	0	0	512	511	0	1018	39	21	
2	0	0	0	0	514	508	0	0	39	21	
3	0	0	0	0	510	510	0	1018	39	21	
4	0	0	0	0	513	508	0	0	39	21	
5	0	0	0	0	511	508	0	1018	39	21	
6	0	0	0	0	515	504	0	0	39	21	
7	0	0	0	0	512	510	0	1018	39	21	
8	0	0	0	0	511	509	0	0	39	21	
9	0	0	0	0	514	508	0	1018	39	21	
10	0	0	0	0	512	508	0	0	39	21	
11	0	0	0	0	510	508	0	1018	39	21	
12	0	0	0	0	514	508	0	0	39	21	
13	0	0	0	0	512	506	0	1018	39	21	
14	0	0	0	0	514	509	0	0	39	21	
15	0	0	0	0	511	510	0	1018	39	21	
0	0	0	0	0	514	507	0	0	39	21	
1	0	0	0	0	511	508	0	1018	39	21	
2	0	0	0	0	515	509	0	0	39	21	
3	0	0	0	0	509	510	0	1018	39	21	
4	0	0	0	0	515	506	0	0	39	21	
5	0	0	0	0	512	511	0	1018	39	21	
6	0	0	0	0	515	507	0	0	39	21	
7	0	0	0	0	512	508	0	1018	39	21	
8	0	0	0	0	512	504	0	0	39	21	
9	0	0	0	0	510	510	0	1018	39	21	
10	0	0	0	0	513	507	0	0	39	21	
11	0	0	0	0	508	512	0	1018	39	21	
12	0	0	0	0	513	507	0	0	39	21	
13	0	0	0	0	511	511	0	1018	39	21	
14	0	0	0	0	515	507	0	0	39	21	
15	0	0	0	0	511	513	0	1018	39	21	
0	0	0	0	0	515	508	0	0	39	21	
1	0	0	0	0	512	510	0	1018	39	21	
2	0	0	0	0	516	505	0	0	39	21	
3	0	0	0	0	511	508	0	1018	39	21	
4	0	0	0	0	499	507	0	0	39	21	
5	0	0	0	0	507	511	0	1018	39	21	
6	0	0	0	0	550	504	0	0	39	21	
7	0	0	0	0	555	507	0	1018	39	21	
8	0	0	0	0	509	509	0	0	39	21	
9	0	0	0	0	455	508	0	1018	39	21	
10	0	0	0	0	563	506	0	0	39	21	
11	0	0	0	0	458	508	0	1018	39	21	
12	0	0	0	0	588	508	0	0	39	21	
13	0	0	0	0	406	508	0	1018	39	21	
14	0	0	0	0	616	504	0	0	39	21	
15	0	0	0	0	535	512	0	1018	39	21	
0	0	0	0	0	460	508	0	0	39	20	
1	0	0	0	0	437	510	0	1018	39	20	
2	0	0	0	0	525	504	0	0	39	20	
3	0	0	0	0	472	505	0	1018	39	20	
4	0	0	0	0	587	507	0	0	39	20	
5	0	0	0	0	397	504	0	1018	39	20	
6	0	0	0	0	463	505	0	0	39	21	
7	0	0	0	0	513	509	0	1018	39	21	
8	0	0	0	0	459	505	0	0	39	22	
9	0	0	0	0	536	508	0	1018	39	22	
10	0	0	0	0	419	505	0	0	39	22	
11	0	0	0	0	553	508	0	1018	39	22	
12	0	0	0	0	535	508	0	0	39	22	
13	0	0	0	0	469	507	0	1018	39	21	
14	0	0	0	0	512	507	0	0	39	21	
15	0	0	0	0	475	510	0	1018	39	21	
0	0	0	0	0	522	507	0	0	39	21	
1	0	0	0	0	478	511	0	1018	39	21	
2	0	0	0	0	674	507	0	0	39	21	
3	0	0	0	0	556	513	0	1018	39	21	
4	0	0	0	0	557	510	0	0	39	21	
5	0	0	0	0	472	512	0	1018	39	21	
6	0	0	0	0	700	510	0	0	39	21	
7	0	0	0	0	568	513	0	1018	39	21	
8	0	0	0	0	524	507	0	0	39	21	
9	0	0	0	0	587	509	0	1018	39	21	
10	0	0	0	0	551	509	0	0	39	21	
11	0	0	0	0	606	510	0	1018	39	21	
12	0	0	0	0	415	507	0	0	39	21	
13	0	0	0	0	483	506	0	1018	39	21	
14	0	0	0	0	522	507	0	0	39	21	
15	0	0	0	0	517	510	0	1018	39	21	
0	0	0	0	0	447	505	0	0	39	21	
1	0	0	0	0	522	508	0	1018	39	21	
2	0	0	0	0	456	506	0	0	39	21	
3	0	0	0	0	425	508	0	1018	39	21	
4	0	0	0	0	710	508	0	0	39	21	
5	0	0	0	0	504	511	0	1018	39	21	
6	0	0	0	0	510	507	0	0	39	21	
7	0	0	0	0	524	509	0	1018	39	21	
8	0	0	0	0	514	505	0	0	39	21	
9	0	0	0	0	511	508	0	1018	39	21	
10	0	0	0	0	511	506	0	0	39	21	
11	0	0	0	0	515	508	0	1018	39	21	
12	0	0	0	0	513	507	0	0	39	21	
13	0	0	0	0	513	511	0	1018	39	21	
14	0	0	0	0	513	507	0	0	39	21	
15	0	0	0	0	514	509	0	1018	39	21	
0	0	0	0	0	516	507	0	0	39	21	
1	0	0	0	0	522	510	0	1018	39	21	
2	0	0	0	0	515	509	0	0	39	21	
3	0	0	0	0	506	511	0	1018	39	21	
4	0	0	0	0	519	511	0	0	39	20	
5	0	0	0	0	506	510	0	1018	39	20	
6	0	0	0	0	516	509	0	0	39	19	
7	0	0	0	0	504	511	0	1018	39	19	
8	0	0	0	0	519	507	0	0	39	19	
9	0	0	0	0	496	509	0	1018	39	20	
10	0	0	0	0	517	507	0	0	39	20	
11	0	0	0	0	508	508	0	1018	39	20	
12	0	0	0	0	515	506	0	0	39	20	
13	0	0	0	0	519	507	0	1018	39	20	
14	0	0	0	0	525	504	0	0	39	20	
15	0	0	0	0	500	510	0	1018	39	21	
0	0	0	0	0	515	505	0	0	39	21	
1	0	0	0	0	512	508	0	1018	39	21	
2	0	0	0	0	520	506	0	0	39	21	
3	0	0	0	0	506	506	0	1018	39	21	
4	0	0	0	0	515	507	0	0	39	21	
5	0	0	0	0	505	509	0	1018	39	21	
6	0	0	0	0	520	508	0	0	39	21	
7	0	0	0	0	493	508	0	1018	39	21	
8	0	0	0	0	510	506	0	0	39	21	
9	0	0	0	0	512	508	0	1018	39	21	
10	0	0	0	0	519	508	0	0	39	21	
11	0	0	0	0	524	509	0	1018	39	21	
12	0	0	0	0	518	511	0	0	39	21	
13	0	0	0	0	522	510	0	1018	39	21	
14	0	0	0	0	519	507	0	0	39	22	
15	0	0	0	0	509	508	0	1018	39	22	
0	0	0	0	0	525	504	0	0	39	22	
1	0	0	0	0	499	508	0	1018	39	22	
2	0	0	0	0	510	506	0	0	39	22	
3	0	0	0	0	512	511	0	1018	39	22	
4	0	0	0	0	519	507	0	0	39	22	
5	0	0	0	0	513	509	0	1018	39	22	
6	0	0	0	0	508	508	0	0	39	22	
7	0	0	0	0	545	508	0	1018	39	22	
8	0	0	0	0	492	507	0	0	39	22	
9	0	0	0	0	543	511	0	1018	39	22	
10	0	0	0	0	493	505	0	0	39	22	
11	0	0	0	0	501	510	0	1018	39	22	
12	0	0	0	0	513	510	0	0	39	22	
13	0	0	0	0	513	508	0	1018	39	22	
14	0	0	0	0	524	504	0	0	39	22	
15	0	0	0	0	505	510	0	1018	39	22	
0	0	0	0	0	520	506	0	0	39	21	
1	0	0	0	0	504	510	0	1018	39	21	
2	0	0	0	0	517	509	0	0	39	21	
3	0	0	0	0	501	507	0	1018	39	21	
4	0	0	0	0	527	508	0	0	39	20	
5	0	0	0	0	523	510	0	1018	39	20	
6	0	0	0	0	510	508	0	0	39	20	
7	0	0	0	0	511	509	0	1018	39	21	
8	0	0	0	0	521	508	0	0	39	22	
9	0	0	0	0	510	511	0	1018	39	21	
10	0	0	0	0	524	508	0	0	39	21	
11	0	0	0	0	534	505	0	1018	39	21	
12	0	0	0	0	527	505	0	0	39	21	
13	0	0	0	0	528	510	0	1018	39	21	
14	0	0	0	0	515	504	0	0	39	21	
15	0	0	0	0	499	507	0	1018	39	21	
0	0	0	0	0	530	506	0	0	39	21	
1	0	0	0	0	520	509	0	1018	39	21	
2	0	0	0	0	504	506	0	0	39	21	
3	0	0	0	0	553	508	0	1018	39	21	
4	0	0	0	0	536	511	0	0	39	20	
5	0	0	0	0	541	509	0	1018	39	20	
6	0	0	0	0	428	508	0	0	39	20	
7	0	0	0	0	563	513	0	1018	39	20	
8	0	0	0	0	580	511	0	0	39	19	
9	0	0	0	0	519	510	0	1018	39	18	
10	0	0	0	0	530	508	0	0	39	19	
11	0	0	0	0	493	507	0	1018	39	19	
12	0	0	0	0	536	507	0	0	39	19	
13	0	0	0	0	515	508	0	1018	39	18	
14	0	0	0	0	521	505	0	0	39	18	
15	0	0	0	0	539	505	0	1018	39	18	
0	0	0	0	0	458	507	0	0	39	19	
1	0	0	0	0	576	508	0	1018	39	19	
2	0	0	0	0	607	508	0	0	39	19	
3	0	0	0	0	514	509	0	1018	39	19	
4	0	0	0	0	496	508	0	0	39	19	
5	0	0	0	0	512	508	0	1018	39	19	
6	0	0	0	0	506	507	0	0	39	19	
7	0	0	0	0	518	509	0	1018	39	19	
8	0	0	0	0	504	509	0	0	39	19	
9	0	0	0	0	500	509	0	1018	39	19	
10	0	0	0	0	515	510	0	0	39	19	
11	0	0	0	0	504	510	0	1018	39	19	
12	0	0	0	0	521	508	0	0	39	19	
13	0	0	0	0	503	508	0	1018	39	19	
14	0	0	0	0	505	508	0	0	39	19	
15	0	0	0	0	523	512	0	1018	39	19	
0	0	0	0	0	518	507	0	0	39	19	
1	0	0	0	0	511	507	0	1018	39	19	
2	0	0	0	0	519	508	0	0	39	19	
3	0	0	0	0	513	510	0	1018	39	19	
4	0	0	0	0	512	507	0	0	39	19	
5	0	0	0	0	513	507	0	1018	39	19	
6	0	0	0	0	513	508	0	0	39	19	
7	0	0	0	0	508	509	0	1018	39	19	
8	0	0	0	0	514	506	0	0	39	19	
9	0	0	0	0	510	508	0	1018	39	18	
10	0	0	0	0	511	509	0	0	39	18	
11	0	0	0	0	511	511	0	1018	39	18	
12	0	0	0	0	508	509	0	0	39	19	
13	0	0	0	0	509	510	0	1018	39	19	
14	0	0	0	0	518	508	0	0	39	19	
15	0	0	0	0	515	508	0	1018	39	20	
0	0	0	0	0	516	510	0	0	39	20	
1	0	0	0	0	515	510	0	1018	39	21	
2	0	0	0	0	513	507	0	0	39	21	
3	0	0	0	0	512	511	0	1018	39	21	
4	0	0	0	0	515	508	0	0	39	21	
5	0	0	0	0	516	512	0	1018	39	21	
6	0	0	0	0	511	509	0	0	39	21	
7	0	0	0	0	515	506	0	1018	39	21	
8	0	0	0	0	510	506	0	0	39	21	
9	0	0	0	0	511	506	0	1018	39	21	
10	0	0	0	0	517	510	0	0	39	21	
11	0	0	0	0	516	508	0	1018	39	21	
12	0	0	0	0	510	507	0	0	39	21	
13	0	0	0	0	511	512	0	1018	39	20	
14	0	0	0	0	516	507	0	0	39	19	
15	0	0	0	0	515	510	0	1018	39	20	
0	0	0	0	0	530	508	0	0	39	20	
1	0	0	0	0	517	509	0	1018	39	20	
2	0	0	0	0	507	509	0	0	39	20	
3	0	0	0	0	505	511	0	1018	39	20	
4	0	0	0	0	519	508	0	0	39	20	
5	0	0	0	0	518	512	0	1018	39	20	
6	0	0	0	0	513	508	0	0	39	21	
7	0	0	0	0	518	509	0	1018	39	21	
8	0	0	0	0	505	510	0	0	39	21	
9	0	0	0	0	516	509	0	1018	39	21	
10	0	0	0	0	517	508	0	0	39	21	
11	0	0	0	0	515	508	0	1018	39	21	
12	0	0	0	0	520	508	0	0	39	21	
13	0	0	0	0	513	509	0	1018	39	21	
14	0	0	0	0	513	507	0	0	39	21	
15	0	0	0	0	516	508	0	1018	39	21	
0	0	0	0	0	517	508	0	0	39	22	
1	0	0	0	0	513	510	0	1018	39	22	
2	0	0	0	0	519	509	0	0	39	22	
3	0	0	0	0	511	507	0	1018	39	22	
4	0	0	0	0	515	505	0	0	39	22	
5	0	0	0	0	512	508	0	1018	39	22	
6	0	0	0	0	521	505	0	0	39	22	
7	0	0	0	0	507	508	0	1018	39	22	
8	0	0	0	0	519	506	0	0	39	22	
9	0	0	0	0	506	508	0	1018	39	22	
10	0	0	0	0	521	510	0	0	39	22	
11	0	0	0	0	500	506	0	1018	39	22	
12	0	0	0	0	521	506	0	0	39	22	
13	0	0	0	0	508	508	0	1018	39	22	
14	0	0	0	0	498	506	0	0	39	22	
15	0	0	0	0	516	509	0	1018	39	22	
0	0	0	0	0	518	508	0	0	39	22	
1	0	0	0	0	482	507	0	1018	39	22	
2	0	0	0	0	509	511	0	0	39	21	
3	0	0	0	0	496	508	0	1018	39	21	
4	0	0	0	0	522	505	0	0	39	21	
5	0	0	0	0	512	507	0	1018	39	21	
6	0	0	0	0	511	510	0	0	39	21	
7	0	0	0	0	517	506	0	1018	39	20	
8	0	0	0	0	513	508	0	0	39	20	
9	0	0	0	0	513	512	0	1018	39	20	
10	0	0	0	0	502	508	0	0	39	20	
11	0	0	0	0	490	509	0	1018	39	20	
12	0	0	0	0	505	514	0	0	39	21	
13	0	0	0	0	507	510	0	1018	39	21	
14	0	0	0	0	498	510	0	0	39	21	
15	0	0	0	0	516	509	0	1018	39	21	
0	0	0	0	0	538	511	0	0	39	21	
1	0	0	0	0	489	509	0	1018	39	21	
2	0	0	0	0	513	512	0	0	39	21	
3	0	0	0	0	534	508	0	1018	39	21	
4	0	0	0	0	520	508	0	0	39	21	
5	0	0	0	0	526	511	0	1018	39	21	
6	0	0	0	0	515	510	0	0	39	21	
7	0	0	0	0	522	508	0	1018	39	21	
8	0	0	0	0	479	511	0	0	39	21	
9	0	0	0	0	481	507	0	1018	39	21	
10	0	0	0	0	518	511	0	0	39	20	
11	0	0	0	0	513	508	0	1018	39	20	
12	0	0	0	0	486	509	0	0	39	20	
13	0	0	0	0	468	506	0	1018	39	20	
14	0	0	0	0	495	504	0	0	39	19	
15	0	0	0	0	615	508	0	1018	39	19	
0	0	0	0	0	471	510	0	0	39	18	
1	0	0	0	0	496	509	0	1018	39	18	
2	0	0	0	0	524	509	0	0	39	18	
3	0	0	0	0	438	509	0	1018	39	19	
4	0	0	0	0	643	507	0	0	39	19	
5	0	0	0	0	362	506	0	1018	39	19	
6	0	0	0	0	436	507	0	0	39	18	
7	0	0	0	0	449	507	0	1018	39	19	
8	0	0	0	0	444	507	0	0	39	19	
9	0	0	0	0	450	508	0	1018	39	19	
10	0	0	0	0	508	509	0	0	39	19	
11	0	0	0	0	526	510	0	1018	39	19	
12	0	0	0	0	519	510	0	0	39	19	
13	0	0	0	0	532	510	0	1018	39	19	
14	0	0	0	0	560	508	0	0	39	19	
15	0	0	0	0	475	511	0	1018	39	20	
0	0	0	0	0	501	508	0	0	39	20	
1	0	0	0	0	451	508	0	1018	39	20	
2	0	0	0	0	554	509	0	0	39	20	
3	0	0	0	0	508	508	0	1018	39	20	
4	0	0	0	0	514	507	0	0	39	20	
5	0	0	0	0	512	508	0	1018	39	20	
6	0	0	0	0	528	510	0	0	39	20	
7	0	0	0	0	455	510	0	1018	39	20	
8	0	0	0	0	565	508	0	0	39	20	
9	0	0	0	0	494	511	0	1018	39	20	
10	0	0	0	0	513	508	0	0	39	20	
11	0	0	0	0	544	506	0	1018	39	20	
12	0	0	0	0	471	508	0	0	39	20	
13	0	0	0	0	518	507	0	1018	39	20	
14	0	0	0	0	517	505	0	0	39	20	
15	0	0	0	0	509	509	0	1018	39	20	
0	0	0	0	0	505	507	0	0	39	20	
1	0	0	0	0	511	509	0	1018	39	20	
2	0	0	0	0	533	510	0	0	39	20	
3	0	0	0	0	492	511	0	1018	39	20	
4	0	0	0	0	496	510	0	0	39	20	
5	0	0	0	0	531	509	0	1018	39	20	
6	0	0	0	0	548	509	0	0	39	20	
7	0	0	0	0	518	509	0	1018	39	20	
8	0	0	0	0	515	507	0	0	39	20	
9	0	0	0	0	521	509	0	1018	39	20	
10	0	0	0	0	504	510	0	0	39	20	
11	0	0	0	0	536	510	0	1018	39	20	
12	0	0	0	0	502	508	0	0	39	20	
13	0	0	0	0	495	510	0	1018	39	20	
14	0	0	0	0	484	510	0	0	39	19	
15	0	0	0	0	493	510	0	1018	39	19	
0	0	0	0	0	500	506	0	0	39	19	
1	0	0	0	0	512	508	0	1018	39	19	
2	0	0	0	0	516	508	0	0	39	19	
3	0	0	0	0	511	511	0	1018	39	19	
4	0	0	0	0	509	507	0	0	39	19	
5	0	0	0	0	518	509	0	1018	39	19	
6	0	0	0	0	515	509	0	0	39	19	
7	0	0	0	0	510	510	0	1018	39	19	
8	0	0	0	0	513	510	0	0	39	18	
9	0	0	0	0	513	508	0	1018	39	18	
10	0	0	0	0	511	508	0	0	39	19	
11	0	0	0	0	509	509	0	1018	39	19	
12	0	0	0	0	523	507	0	0	39	18	
13	0	0	0	0	513	509	0	1018	39	18	
14	0	0	0	0	511	510	0	0	39	18	
15	0	0	0	0	518	509	0	1018	39	19	
0	0	0	0	0	513	512	0	0	39	20	
1	0	0	0	0	507	510	0	1018	39	20	
2	0	0	0	0	518	510	0	0	39	21	
3	0	0	0	0	508	508	0	1018	39	21	
4	0	0	0	0	512	509	0	0	39	21	
5	0	0	0	0	510	509	0	1018	39	21	
6	0	0	0	0	526	509	0	0	39	21	
7	0	0	0	0	512	508	0	1018	39	21	
8	0	0	0	0	512	510	0	0	39	21	
9	0	0	0	0	516	507	0	1018	39	21	
10	0	0	0	0	516	506	0	0	39	21	
11	0	0	0	0	505	508	0	1018	39	20	
12	0	0	0	0	513	511	0	0	39	19	
13	0	0	0	0	509	506	0	1018	39	19	
14	0	0	0	0	516	512	0	0	39	19	
15	0	0	0	0	510	509	0	1018	39	20	
0	0	0	0	0	514	507	0	0	39	20	
1	0	0	0	0	510	507	0	1018	39	20	
2	0	0	0	0	517	510	0	0	39	20	
3	0	0	0	0	512	507	0	1018	39	21	
4	0	0	0	0	516	511	0	0	39	21	
5	0	0	0	0	512	513	0	1018	39	21	
6	0	0	0	0	515	508	0	0	39	21	
7	0	0	0	0	504	508	0	1018	39	21	
8	0	0	0	0	518	508	0	0	39	21	
9	0	0	0	0	510	509	0	1018	39	21	
10	0	0	0	0	519	508	0	0	39	21	
11	0	0	0	0	512	508	0	1018	40	21	
12	0	0	0	0	522	513	0	0	39	22	
13	0	0	0	0	511	510	0	1018	39	22	
14	0	0	0	0	522	509	0	0	39	22	
15	0	0	0	0	515	506	0	1018	39	22	
0	0	0	0	0	520	511	0	0	39	22	
1	0	0	0	0	513	510	0	1018	39	22	
2	0	0	0	0	519	510	0	0	39	22	
3	0	0	0	0	516	508	0	1018	39	22	
4	0	0	0	0	523	510	0	0	39	22	
5	0	0	0	0	511	507	0	1018	39	22	
6	0	0	0	0	526	510	0	0	39	22	
7	0	0	0	0	512	511	0	1018	39	22	
8	0	0	0	0	516	512	0	0	39	22	
9	0	0	0	0	511	509	0	1018	39	22	
10	0	0	0	0	519	511	0	0	39	22	
11	0	0	0	0	513	508	0	1018	39	22	
12	0	0	0	0	519	508	0	0	39	22	
13	0	0	0	0	515	508	0	1018	39	22	
14	0	0	0	0	519	510	0	0	39	22	
15	0	0	0	0	510	509	0	1018	39	22	
0	0	0	0	0	518	508	0	0	39	22	
1	0	0	0	0	513	508	0	1018	39	22	
2	0	0	0	0	519	507	0	0	39	22	
3	0	0	0	0	510	509	0	1018	39	22	
4	0	0	0	0	522	510	0	0	39	22	
5	0	0	0	0	512	510	0	699	39	22	
6	0	0	0	0	520	509	0	0	39	22	
7	0	0	0	0	512	511	0	581	39	21	
8	0	0	0	0	515	512	0	0	39	21	
9	0	0	0	0	512	507	0	1018	39	21	
10	0	0	0	0	522	513	0	0	39	21	
11	0	0	0	0	509	508	0	1018	39	21	
12	0	0	0	0	523	507	0	0	39	21	
13	0	0	0	0	510	508	0	1018	39	21	
14	0	0	0	0	521	511	0	0	39	21	
15	0	0	0	0	509	507	0	1018	39	21	
0	0	0	0	0	522	509	0	0	39	21	
1	0	0	0	0	513	508	0	1018	39	21	
2	0	0	0	0	520	508	0	0	39	21	
3	0	0	0	0	511	511	0	1018	39	21	
4	0	0	0	0	520	508	0	0	39	21	
5	0	0	0	0	512	509	0	1018	39	21	
