# OpenSignals Text File Format. Version 1
# {"84:BA:20:5E:FF:67": {"position": 0, "device": "bitalino_rev", "device name": "84:BA:20:5E:FF:67", "device connection": "BTH84:BA:20:5E:FF:67", "sampling rate": 100, "resolution": [4, 1, 1, 1, 1, 10, 10, 10, 10, 6, 6], "firmware version": 1282, "comments": "", "keywords": "", "mode": 0, "sync interval": 2, "date": "2024-3-4", "time": "17:13:21.133", "channels": [1, 2, 3, 4, 5, 6], "sensor": ["RAW", "RAW", "RAW", "RAW", "RAW", "RAW"], "label": ["A1", "A2", "A3", "A4", "A5", "A6"], "column": ["nSeq", "I1", "I2", "O1", "O2", "A1", "A2", "A3", "A4", "A5", "A6"], "special": [{}, {}, {}, {}, {}, {}], "digital IO": [0, 0, 1, 1]}}
# EndOfHeader
0	0	0	0	0	510	585	0	512	38	11	
1	0	0	0	0	516	580	0	507	38	11	
2	0	0	0	0	515	578	0	507	39	11	
3	0	0	0	0	527	576	0	499	39	11	
4	0	0	0	0	517	575	0	516	38	11	
5	0	0	0	0	518	570	0	507	38	11	
6	0	0	0	0	518	566	0	508	39	11	
7	0	0	0	0	513	559	0	512	40	11	
8	0	0	0	0	508	551	0	509	39	11	
9	0	0	0	0	510	545	0	498	38	11	
10	0	0	0	0	510	536	0	511	38	11	
11	0	0	0	0	516	526	0	513	39	11	
12	0	0	0	0	518	515	0	510	39	11	
13	0	0	0	0	516	505	0	508	38	11	
14	0	0	0	0	511	496	0	502	38	11	
15	0	0	0	0	513	487	0	511	39	11	
0	0	0	0	0	511	484	0	512	38	11	
1	0	0	0	0	513	482	0	501	38	11	
2	0	0	0	0	504	479	0	503	39	11	
3	0	0	0	0	515	473	0	512	39	11	
4	0	0	0	0	513	467	0	504	39	11	
5	0	0	0	0	512	467	0	508	38	11	
6	0	0	0	0	516	467	0	506	39	11	
7	0	0	0	0	514	460	0	509	39	11	
8	0	0	0	0	519	450	0	503	39	11	
9	0	0	0	0	513	444	0	506	38	11	
10	0	0	0	0	523	437	0	505	38	11	
11	0	0	0	0	518	437	0	505	39	11	
12	0	0	0	0	512	430	0	511	38	11	
13	0	0	0	0	519	417	0	510	38	11	
14	0	0	0	0	519	399	0	515	39	11	
15	0	0	0	0	508	383	0	511	39	11	
0	0	0	0	0	514	369	0	519	38	11	
1	0	0	0	0	510	368	0	505	38	11	
2	0	0	0	0	512	377	0	507	39	11	
3	0	0	0	0	516	396	0	512	39	11	
4	0	0	0	0	501	408	0	511	38	11	
5	0	0	0	0	515	420	0	510	38	11	
6	0	0	0	0	510	433	0	506	39	11	
7	0	0	0	0	517	441	0	510	39	11	
8	0	0	0	0	508	441	0	513	39	11	
9	0	0	0	0	511	447	0	511	38	11	
10	0	0	0	0	507	453	0	512	38	11	
11	0	0	0	0	513	461	0	513	39	11	
12	0	0	0	0	513	469	0	518	39	11	
13	0	0	0	0	508	480	0	515	38	11	
14	0	0	0	0	518	494	0	520	39	11	
15	0	0	0	0	522	536	0	514	39	11	
0	0	0	0	0	512	553	0	521	39	11	
1	0	0	0	0	508	428	0	514	38	11	
2	0	0	0	0	505	118	0	512	39	11	
3	0	0	0	0	513	159	0	508	39	11	
4	0	0	0	0	508	501	0	508	39	11	
5	0	0	0	0	521	609	0	513	38	11	
6	0	0	0	0	511	647	0	517	39	11	
7	0	0	0	0	518	655	0	515	39	11	
8	0	0	0	0	509	649	0	523	39	11	
9	0	0	0	0	514	643	0	517	38	11	
10	0	0	0	0	514	629	0	521	38	11	
11	0	0	0	0	522	624	0	515	39	11	
12	0	0	0	0	513	629	0	512	39	11	
13	0	0	0	0	516	638	0	508	39	11	
14	0	0	0	0	513	646	0	516	39	11	
15	0	0	0	0	515	651	0	518	39	11	
0	0	0	0	0	518	653	0	523	38	11	
1	0	0	0	0	520	657	0	510	38	11	
2	0	0	0	0	509	657	0	509	39	11	
3	0	0	0	0	518	657	0	507	39	11	
4	0	0	0	0	510	659	0	520	39	11	
5	0	0	0	0	516	660	0	509	39	11	
6	0	0	0	0	515	652	0	523	39	11	
7	0	0	0	0	521	637	0	500	39	11	
8	0	0	0	0	514	621	0	510	39	11	
9	0	0	0	0	525	611	0	513	38	11	
10	0	0	0	0	519	605	0	515	38	11	
11	0	0	0	0	518	598	0	511	39	11	
12	0	0	0	0	512	591	0	506	39	11	
13	0	0	0	0	518	582	0	507	38	11	
14	0	0	0	0	517	564	0	506	39	11	
15	0	0	0	0	518	555	0	507	39	11	
0	0	0	0	0	507	547	0	506	39	11	
1	0	0	0	0	512	539	0	517	38	11	
2	0	0	0	0	511	530	0	509	39	11	
3	0	0	0	0	521	528	0	519	39	11	
4	0	0	0	0	511	527	0	510	39	11	
5	0	0	0	0	521	526	0	512	38	11	
6	0	0	0	0	512	520	0	512	39	11	
7	0	0	0	0	516	514	0	513	39	11	
8	0	0	0	0	513	502	0	518	38	11	
9	0	0	0	0	519	491	0	513	39	11	
10	0	0	0	0	512	470	0	507	39	11	
11	0	0	0	0	518	444	0	515	39	11	
12	0	0	0	0	515	415	0	512	39	11	
13	0	0	0	0	517	399	0	513	38	11	
14	0	0	0	0	512	382	0	512	39	11	
15	0	0	0	0	517	366	0	515	39	11	
0	0	0	0	0	513	354	0	513	39	11	
1	0	0	0	0	513	349	0	514	38	11	
2	0	0	0	0	516	350	0	513	39	11	
3	0	0	0	0	513	354	0	515	39	11	
4	0	0	0	0	515	361	0	514	39	11	
5	0	0	0	0	514	370	0	509	38	11	
6	0	0	0	0	511	382	0	508	38	11	
7	0	0	0	0	519	396	0	506	39	11	
8	0	0	0	0	510	411	0	502	39	11	
9	0	0	0	0	518	426	0	524	38	11	
10	0	0	0	0	510	444	0	515	39	11	
11	0	0	0	0	515	461	0	514	39	11	
12	0	0	0	0	515	478	0	513	39	11	
13	0	0	0	0	514	489	0	507	38	11	
14	0	0	0	0	507	505	0	509	39	11	
15	0	0	0	0	515	520	0	513	39	11	
0	0	0	0	0	519	527	0	512	39	11	
1	0	0	0	0	514	536	0	506	38	11	
2	0	0	0	0	515	537	0	515	39	11	
3	0	0	0	0	515	540	0	508	39	11	
4	0	0	0	0	515	569	0	503	39	11	
5	0	0	0	0	512	559	0	511	38	11	
6	0	0	0	0	515	384	0	515	39	11	
7	0	0	0	0	511	100	0	515	39	11	
8	0	0	0	0	513	209	0	509	38	11	
9	0	0	0	0	517	496	0	508	38	11	
10	0	0	0	0	511	579	0	514	38	11	
11	0	0	0	0	520	612	0	511	39	11	
12	0	0	0	0	508	614	0	508	39	11	
13	0	0	0	0	526	605	0	512	38	11	
14	0	0	0	0	517	591	0	508	39	11	
15	0	0	0	0	518	580	0	509	39	11	
0	0	0	0	0	511	573	0	511	39	11	
1	0	0	0	0	517	565	0	510	39	11	
2	0	0	0	0	513	557	0	515	39	11	
3	0	0	0	0	517	553	0	519	39	11	
4	0	0	0	0	508	549	0	510	39	11	
5	0	0	0	0	508	550	0	515	38	11	
6	0	0	0	0	507	546	0	521	39	11	
7	0	0	0	0	521	542	0	511	39	11	
8	0	0	0	0	511	539	0	499	39	11	
9	0	0	0	0	515	535	0	512	38	11	
10	0	0	0	0	506	529	0	506	39	11	
11	0	0	0	0	515	526	0	508	39	11	
12	0	0	0	0	510	522	0	505	39	11	
13	0	0	0	0	517	517	0	511	38	11	
14	0	0	0	0	507	514	0	508	39	11	
15	0	0	0	0	519	516	0	511	39	11	
0	0	0	0	0	515	523	0	511	38	11	
1	0	0	0	0	516	529	0	516	38	11	
2	0	0	0	0	508	532	0	508	39	11	
3	0	0	0	0	517	533	0	510	39	11	
4	0	0	0	0	518	531	0	505	39	11	
5	0	0	0	0	513	529	0	505	38	11	
6	0	0	0	0	515	527	0	504	39	11	
7	0	0	0	0	511	524	0	507	39	11	
8	0	0	0	0	512	521	0	519	38	11	
9	0	0	0	0	519	523	0	513	38	11	
10	0	0	0	0	510	521	0	520	39	11	
11	0	0	0	0	513	523	0	510	39	11	
12	0	0	0	0	515	524	0	503	39	11	
13	0	0	0	0	516	526	0	501	39	11	
14	0	0	0	0	517	529	0	507	39	11	
15	0	0	0	0	518	532	0	517	39	11	
0	0	0	0	0	514	536	0	504	39	11	
1	0	0	0	0	512	539	0	503	38	11	
2	0	0	0	0	515	543	0	521	39	11	
3	0	0	0	0	519	547	0	511	39	11	
4	0	0	0	0	508	548	0	510	39	11	
5	0	0	0	0	518	553	0	514	38	11	
6	0	0	0	0	515	556	0	508	39	11	
7	0	0	0	0	512	559	0	504	39	11	
8	0	0	0	0	513	560	0	511	39	11	
9	0	0	0	0	511	560	0	508	38	11	
10	0	0	0	0	516	560	0	515	39	11	
11	0	0	0	0	523	562	0	512	39	11	
12	0	0	0	0	510	563	0	505	39	11	
13	0	0	0	0	521	567	0	507	38	11	
14	0	0	0	0	515	568	0	515	39	11	
15	0	0	0	0	513	568	0	509	39	11	
0	0	0	0	0	518	569	0	510	39	11	
1	0	0	0	0	515	571	0	510	38	11	
2	0	0	0	0	506	573	0	501	39	11	
3	0	0	0	0	515	574	0	504	39	11	
4	0	0	0	0	510	572	0	503	39	11	
5	0	0	0	0	519	572	0	499	38	11	
6	0	0	0	0	510	570	0	513	39	11	
7	0	0	0	0	517	568	0	505	39	11	
8	0	0	0	0	514	565	0	515	39	11	
9	0	0	0	0	518	565	0	506	38	11	
10	0	0	0	0	523	562	0	508	39	11	
11	0	0	0	0	511	556	0	511	39	11	
12	0	0	0	0	512	551	0	504	39	11	
13	0	0	0	0	520	547	0	511	38	11	
14	0	0	0	0	512	545	0	523	39	11	
15	0	0	0	0	515	544	0	509	39	11	
0	0	0	0	0	517	543	0	517	39	11	
1	0	0	0	0	515	544	0	508	38	11	
2	0	0	0	0	512	563	0	513	39	11	
3	0	0	0	0	517	575	0	512	39	11	
4	0	0	0	0	519	483	0	511	39	11	
5	0	0	0	0	517	226	0	502	38	11	
6	0	0	0	0	518	196	0	510	39	11	
7	0	0	0	0	518	483	0	509	39	11	
8	0	0	0	0	508	584	0	506	39	11	
9	0	0	0	0	510	622	0	508	38	11	
10	0	0	0	0	507	633	0	510	39	11	
11	0	0	0	0	515	630	0	506	39	11	
12	0	0	0	0	515	618	0	508	39	11	
13	0	0	0	0	524	602	0	512	38	11	
14	0	0	0	0	516	577	0	507	39	11	
15	0	0	0	0	513	548	0	504	39	11	
0	0	0	0	0	514	521	0	512	39	11	
1	0	0	0	0	517	498	0	515	38	11	
2	0	0	0	0	516	481	0	509	39	11	
3	0	0	0	0	513	471	0	511	39	11	
4	0	0	0	0	516	464	0	510	39	11	
5	0	0	0	0	517	466	0	511	38	11	
6	0	0	0	0	515	467	0	514	39	11	
7	0	0	0	0	515	467	0	508	39	11	
8	0	0	0	0	510	462	0	509	39	11	
9	0	0	0	0	516	463	0	511	39	11	
10	0	0	0	0	507	460	0	510	39	11	
11	0	0	0	0	514	455	0	508	39	11	
12	0	0	0	0	513	449	0	521	39	11	
13	0	0	0	0	518	445	0	508	38	11	
14	0	0	0	0	516	450	0	504	39	11	
15	0	0	0	0	519	460	0	506	39	11	
0	0	0	0	0	518	468	0	511	39	11	
1	0	0	0	0	522	478	0	513	39	11	
2	0	0	0	0	513	486	0	515	39	11	
3	0	0	0	0	516	494	0	504	39	11	
4	0	0	0	0	515	500	0	512	39	11	
5	0	0	0	0	515	507	0	509	39	11	
6	0	0	0	0	520	512	0	520	39	11	
7	0	0	0	0	512	515	0	521	39	11	
8	0	0	0	0	514	519	0	512	38	11	
9	0	0	0	0	512	522	0	510	38	11	
10	0	0	0	0	509	519	0	516	39	11	
11	0	0	0	0	516	514	0	508	39	11	
12	0	0	0	0	509	510	0	509	39	11	
13	0	0	0	0	520	507	0	507	38	11	
14	0	0	0	0	516	504	0	523	39	11	
15	0	0	0	0	515	497	0	512	39	11	
0	0	0	0	0	515	489	0	512	39	11	
1	0	0	0	0	516	481	0	510	38	11	
2	0	0	0	0	513	469	0	516	39	11	
3	0	0	0	0	512	457	0	505	39	11	
4	0	0	0	0	513	443	0	520	39	11	
5	0	0	0	0	517	434	0	518	39	11	
6	0	0	0	0	518	426	0	513	39	11	
7	0	0	0	0	519	419	0	504	39	11	
8	0	0	0	0	514	417	0	508	39	11	
9	0	0	0	0	519	419	0	510	38	11	
10	0	0	0	0	513	425	0	515	39	11	
11	0	0	0	0	518	433	0	513	39	11	
12	0	0	0	0	521	443	0	522	39	11	
13	0	0	0	0	510	452	0	514	38	11	
14	0	0	0	0	524	455	0	510	39	11	
15	0	0	0	0	510	463	0	508	39	11	
0	0	0	0	0	516	470	0	507	39	11	
1	0	0	0	0	513	478	0	508	39	11	
2	0	0	0	0	511	488	0	506	39	11	
3	0	0	0	0	513	499	0	515	39	11	
4	0	0	0	0	519	518	0	511	39	11	
5	0	0	0	0	513	542	0	514	38	11	
6	0	0	0	0	509	564	0	508	39	11	
7	0	0	0	0	512	592	0	508	39	11	
8	0	0	0	0	509	616	0	507	39	11	
9	0	0	0	0	506	639	0	517	38	11	
10	0	0	0	0	516	667	0	514	39	11	
11	0	0	0	0	524	696	0	515	39	11	
12	0	0	0	0	514	727	0	519	39	11	
13	0	0	0	0	510	767	0	518	38	11	
14	0	0	0	0	512	787	0	510	39	11	
15	0	0	0	0	521	797	0	509	39	11	
0	0	0	0	0	513	804	0	509	38	11	
1	0	0	0	0	517	740	0	513	38	11	
2	0	0	0	0	514	511	0	507	39	11	
3	0	0	0	0	512	333	0	513	39	10	
4	0	0	0	0	509	560	0	507	39	10	
5	0	0	0	0	516	664	0	515	39	10	
6	0	0	0	0	511	684	0	512	39	11	
7	0	0	0	0	515	679	0	508	39	11	
8	0	0	0	0	517	662	0	505	39	11	
9	0	0	0	0	518	643	0	507	39	10	
10	0	0	0	0	511	623	0	508	39	9	
11	0	0	0	0	512	607	0	509	39	9	
12	0	0	0	0	511	591	0	511	39	11	
13	0	0	0	0	515	576	0	507	38	11	
14	0	0	0	0	513	563	0	505	39	11	
15	0	0	0	0	513	551	0	510	39	11	
0	0	0	0	0	510	540	0	510	39	11	
1	0	0	0	0	507	532	0	506	39	11	
2	0	0	0	0	507	524	0	508	39	11	
3	0	0	0	0	515	518	0	504	39	11	
4	0	0	0	0	509	510	0	511	39	11	
5	0	0	0	0	512	504	0	504	38	11	
6	0	0	0	0	514	493	0	506	39	11	
7	0	0	0	0	515	487	0	516	39	11	
8	0	0	0	0	516	479	0	510	39	11	
9	0	0	0	0	521	472	0	504	38	11	
10	0	0	0	0	509	464	0	510	39	11	
11	0	0	0	0	519	465	0	509	39	11	
12	0	0	0	0	517	468	0	510	39	11	
13	0	0	0	0	510	473	0	501	39	11	
14	0	0	0	0	512	473	0	505	39	11	
15	0	0	0	0	515	475	0	511	39	11	
0	0	0	0	0	515	473	0	515	39	11	
1	0	0	0	0	514	475	0	512	38	11	
2	0	0	0	0	512	473	0	513	38	11	
3	0	0	0	0	516	475	0	514	39	11	
4	0	0	0	0	512	472	0	516	39	11	
5	0	0	0	0	515	475	0	519	38	11	
6	0	0	0	0	513	474	0	519	39	11	
7	0	0	0	0	517	474	0	516	39	11	
8	0	0	0	0	513	474	0	514	39	11	
9	0	0	0	0	517	472	0	508	39	11	
10	0	0	0	0	514	468	0	511	39	11	
11	0	0	0	0	516	465	0	509	39	11	
12	0	0	0	0	512	461	0	504	39	11	
13	0	0	0	0	519	460	0	511	38	11	
14	0	0	0	0	511	457	0	507	39	11	
15	0	0	0	0	513	458	0	513	39	11	
0	0	0	0	0	503	457	0	510	39	11	
1	0	0	0	0	521	462	0	509	38	11	
2	0	0	0	0	513	463	0	508	39	11	
3	0	0	0	0	513	466	0	509	39	11	
4	0	0	0	0	514	467	0	513	39	11	
5	0	0	0	0	512	468	0	516	39	11	
6	0	0	0	0	512	471	0	509	39	11	
7	0	0	0	0	520	473	0	520	39	11	
8	0	0	0	0	514	477	0	510	39	11	
9	0	0	0	0	516	480	0	513	38	11	
10	0	0	0	0	516	482	0	515	39	11	
11	0	0	0	0	517	483	0	516	39	11	
12	0	0	0	0	518	479	0	504	39	11	
13	0	0	0	0	517	480	0	506	38	11	
14	0	0	0	0	518	483	0	518	39	11	
15	0	0	0	0	517	484	0	517	39	11	
0	0	0	0	0	516	486	0	513	38	11	
1	0	0	0	0	513	489	0	507	38	11	
2	0	0	0	0	515	491	0	508	39	11	
3	0	0	0	0	510	508	0	508	39	11	
4	0	0	0	0	522	529	0	513	38	11	
5	0	0	0	0	510	468	0	512	38	11	
6	0	0	0	0	523	261	0	513	39	11	
7	0	0	0	0	506	183	0	517	39	11	
8	0	0	0	0	521	419	0	506	39	11	
9	0	0	0	0	511	515	0	515	38	11	
10	0	0	0	0	513	545	0	505	39	11	
11	0	0	0	0	511	554	0	511	39	11	
12	0	0	0	0	509	550	0	504	38	11	
13	0	0	0	0	513	541	0	517	38	11	
14	0	0	0	0	515	531	0	519	39	11	
15	0	0	0	0	515	525	0	515	39	11	
0	0	0	0	0	508	517	0	512	38	11	
1	0	0	0	0	519	511	0	509	38	11	
2	0	0	0	0	525	504	0	509	39	11	
3	0	0	0	0	515	537	0	516	39	11	
4	0	0	0	0	507	543	0	512	39	11	
5	0	0	0	0	516	546	0	515	39	11	
6	0	0	0	0	515	544	0	518	39	11	
7	0	0	0	0	514	542	0	508	39	11	
8	0	0	0	0	510	535	0	505	39	11	
9	0	0	0	0	523	529	0	497	38	11	
10	0	0	0	0	511	519	0	523	39	11	
11	0	0	0	0	518	509	0	529	39	11	
12	0	0	0	0	508	506	0	500	39	11	
13	0	0	0	0	514	500	0	512	39	11	
14	0	0	0	0	520	498	0	508	39	11	
15	0	0	0	0	518	512	0	512	39	11	
0	0	0	0	0	510	511	0	501	39	11	
1	0	0	0	0	515	511	0	504	39	11	
2	0	0	0	0	519	510	0	509	38	11	
3	0	0	0	0	518	510	0	508	38	11	
4	0	0	0	0	515	506	0	511	38	11	
5	0	0	0	0	511	505	0	514	39	11	
6	0	0	0	0	514	505	0	511	40	11	
7	0	0	0	0	518	505	0	512	40	11	
8	0	0	0	0	511	504	0	510	39	11	
9	0	0	0	0	513	504	0	504	38	11	
10	0	0	0	0	510	502	0	515	39	11	
11	0	0	0	0	511	501	0	513	39	11	
12	0	0	0	0	514	499	0	513	39	11	
13	0	0	0	0	514	498	0	503	39	11	
14	0	0	0	0	515	497	0	508	39	11	
15	0	0	0	0	516	497	0	511	39	11	
0	0	0	0	0	511	497	0	522	39	11	
1	0	0	0	0	508	498	0	519	39	11	
2	0	0	0	0	515	497	0	513	39	11	
3	0	0	0	0	508	497	0	514	39	11	
4	0	0	0	0	511	498	0	500	39	11	
5	0	0	0	0	513	490	0	508	39	11	
6	0	0	0	0	512	486	0	512	39	11	
7	0	0	0	0	517	491	0	516	39	11	
8	0	0	0	0	515	496	0	511	39	11	
9	0	0	0	0	516	504	0	505	38	11	
10	0	0	0	0	515	502	0	517	39	11	
11	0	0	0	0	511	500	0	516	39	11	
12	0	0	0	0	515	499	0	510	39	11	
13	0	0	0	0	515	499	0	511	38	11	
14	0	0	0	0	514	499	0	512	39	11	
15	0	0	0	0	510	500	0	509	39	11	
0	0	0	0	0	511	497	0	515	39	11	
1	0	0	0	0	515	495	0	502	39	11	
2	0	0	0	0	512	496	0	498	39	11	
3	0	0	0	0	513	496	0	512	39	11	
4	0	0	0	0	510	497	0	513	38	11	
5	0	0	0	0	513	499	0	513	38	11	
6	0	0	0	0	512	502	0	510	38	11	
7	0	0	0	0	504	510	0	504	39	11	
8	0	0	0	0	515	543	0	503	39	11	
9	0	0	0	0	506	523	0	508	39	11	
10	0	0	0	0	519	339	0	506	39	11	
11	0	0	0	0	513	129	0	505	39	11	
12	0	0	0	0	514	305	0	505	39	11	
13	0	0	0	0	515	498	0	511	39	11	
14	0	0	0	0	514	560	0	518	39	11	
15	0	0	0	0	508	583	0	522	39	11	
0	0	0	0	0	512	587	0	517	39	11	
1	0	0	0	0	518	583	0	509	38	11	
2	0	0	0	0	513	576	0	516	39	11	
3	0	0	0	0	510	569	0	504	39	11	
4	0	0	0	0	490	561	0	504	39	11	
5	0	0	0	0	516	556	0	514	38	11	
6	0	0	0	0	517	551	0	513	39	11	
7	0	0	0	0	512	547	0	505	39	11	
8	0	0	0	0	511	542	0	513	39	11	
9	0	0	0	0	516	539	0	499	39	11	
10	0	0	0	0	515	536	0	499	39	11	
11	0	0	0	0	509	534	0	505	39	11	
12	0	0	0	0	513	531	0	505	39	11	
13	0	0	0	0	355	529	0	508	39	11	
14	0	0	0	0	515	524	0	511	39	11	
15	0	0	0	0	527	518	0	505	39	11	
0	0	0	0	0	514	512	0	506	39	11	
1	0	0	0	0	515	504	0	505	39	11	
2	0	0	0	0	512	496	0	520	40	11	
3	0	0	0	0	510	495	0	508	41	12	
4	0	0	0	0	509	498	0	508	40	12	
5	0	0	0	0	519	502	0	511	39	12	
6	0	0	0	0	513	505	0	504	39	12	
7	0	0	0	0	510	507	0	503	38	12	
8	0	0	0	0	510	507	0	505	37	12	
9	0	0	0	0	518	506	0	504	37	12	
10	0	0	0	0	519	507	0	496	37	12	
11	0	0	0	0	513	508	0	513	38	12	
12	0	0	0	0	515	507	0	509	38	12	
13	0	0	0	0	514	508	0	513	39	12	
14	0	0	0	0	508	507	0	510	39	12	
15	0	0	0	0	513	504	0	514	39	12	
0	0	0	0	0	518	506	0	514	39	12	
1	0	0	0	0	523	506	0	509	38	11	
2	0	0	0	0	519	507	0	507	38	11	
3	0	0	0	0	512	505	0	510	39	11	
4	0	0	0	0	517	505	0	510	38	11	
5	0	0	0	0	513	505	0	516	38	11	
6	0	0	0	0	517	506	0	511	38	11	
7	0	0	0	0	507	506	0	516	38	11	
8	0	0	0	0	509	504	0	512	38	10	
9	0	0	0	0	519	504	0	515	38	10	
10	0	0	0	0	512	504	0	503	39	10	
11	0	0	0	0	508	504	0	513	39	10	
12	0	0	0	0	513	504	0	512	39	10	
13	0	0	0	0	508	504	0	508	38	10	
14	0	0	0	0	512	504	0	510	39	10	
15	0	0	0	0	515	504	0	518	39	10	
0	0	0	0	0	520	505	0	518	39	10	
1	0	0	0	0	513	504	0	510	38	9	
2	0	0	0	0	516	504	0	510	39	9	
3	0	0	0	0	517	506	0	509	39	9	
4	0	0	0	0	509	506	0	513	38	8	
5	0	0	0	0	512	507	0	510	38	8	
6	0	0	0	0	512	507	0	513	39	9	
7	0	0	0	0	514	508	0	509	40	9	
8	0	0	0	0	512	506	0	513	39	9	
9	0	0	0	0	515	503	0	515	39	8	
10	0	0	0	0	515	504	0	511	39	7	
11	0	0	0	0	524	504	0	507	39	7	
12	0	0	0	0	513	503	0	513	39	7	
13	0	0	0	0	512	504	0	510	38	6	
14	0	0	0	0	514	507	0	511	39	6	
15	0	0	0	0	510	514	0	510	39	6	
0	0	0	0	0	511	547	0	511	39	6	
1	0	0	0	0	513	523	0	512	39	6	
2	0	0	0	0	521	334	0	512	39	6	
3	0	0	0	0	510	120	0	511	39	6	
4	0	0	0	0	512	306	0	512	39	6	
5	0	0	0	0	511	499	0	511	38	6	
6	0	0	0	0	513	564	0	510	39	6	
7	0	0	0	0	514	590	0	520	39	6	
8	0	0	0	0	515	593	0	509	39	6	
9	0	0	0	0	518	589	0	509	38	6	
10	0	0	0	0	517	583	0	506	39	6	
11	0	0	0	0	507	574	0	504	39	6	
12	0	0	0	0	505	567	0	509	38	6	
13	0	0	0	0	524	559	0	511	38	6	
14	0	0	0	0	518	556	0	504	38	6	
15	0	0	0	0	515	548	0	512	39	6	
0	0	0	0	0	513	544	0	503	39	6	
1	0	0	0	0	513	542	0	511	39	6	
2	0	0	0	0	513	539	0	503	39	6	
3	0	0	0	0	507	535	0	499	39	6	
4	0	0	0	0	511	533	0	508	39	6	
5	0	0	0	0	513	529	0	507	38	6	
6	0	0	0	0	516	524	0	508	38	6	
7	0	0	0	0	511	519	0	510	39	6	
8	0	0	0	0	511	512	0	507	38	6	
9	0	0	0	0	513	504	0	511	38	6	
10	0	0	0	0	519	496	0	517	39	6	
11	0	0	0	0	520	495	0	510	39	6	
12	0	0	0	0	519	498	0	507	39	6	
13	0	0	0	0	514	504	0	502	39	6	
14	0	0	0	0	516	505	0	515	39	6	
15	0	0	0	0	505	507	0	508	39	6	
0	0	0	0	0	512	507	0	508	38	6	
1	0	0	0	0	514	507	0	505	38	6	
2	0	0	0	0	515	505	0	518	38	6	
3	0	0	0	0	516	505	0	504	39	6	
4	0	0	0	0	510	505	0	508	39	6	
5	0	0	0	0	510	506	0	500	39	6	
6	0	0	0	0	520	508	0	511	39	6	
7	0	0	0	0	516	507	0	518	39	6	
8	0	0	0	0	523	508	0	513	39	6	
9	0	0	0	0	508	508	0	519	39	6	
10	0	0	0	0	512	508	0	513	39	6	
11	0	0	0	0	507	508	0	511	39	6	
12	0	0	0	0	511	507	0	519	39	6	
13	0	0	0	0	511	508	0	503	39	6	
14	0	0	0	0	512	507	0	506	39	6	
15	0	0	0	0	509	506	0	504	39	6	
0	0	0	0	0	514	507	0	500	39	6	
1	0	0	0	0	518	508	0	513	38	6	
2	0	0	0	0	512	508	0	512	39	6	
3	0	0	0	0	507	508	0	509	39	6	
4	0	0	0	0	513	507	0	498	39	6	
5	0	0	0	0	516	506	0	499	38	6	
6	0	0	0	0	515	505	0	509	38	6	
7	0	0	0	0	518	507	0	513	39	6	
8	0	0	0	0	512	505	0	512	38	6	
9	0	0	0	0	515	507	0	507	38	6	
10	0	0	0	0	517	507	0	507	38	6	
11	0	0	0	0	508	507	0	508	39	6	
12	0	0	0	0	511	506	0	508	38	6	
13	0	0	0	0	513	505	0	505	38	6	
14	0	0	0	0	518	505	0	513	38	6	
15	0	0	0	0	514	506	0	513	39	6	
0	0	0	0	0	510	507	0	504	38	6	
1	0	0	0	0	513	508	0	513	38	6	
2	0	0	0	0	512	502	0	508	39	6	
3	0	0	0	0	511	502	0	505	39	6	
4	0	0	0	0	520	502	0	512	39	7	
5	0	0	0	0	518	502	0	509	39	7	
6	0	0	0	0	515	504	0	516	39	7	
7	0	0	0	0	512	505	0	516	39	7	
8	0	0	0	0	516	510	0	498	39	7	
9	0	0	0	0	507	534	0	503	39	8	
10	0	0	0	0	510	539	0	509	39	8	
11	0	0	0	0	514	436	0	511	39	8	
12	0	0	0	0	510	190	0	508	39	8	
13	0	0	0	0	514	187	0	518	39	8	
14	0	0	0	0	514	453	0	520	39	8	
15	0	0	0	0	519	545	0	501	39	8	
0	0	0	0	0	513	582	0	506	39	8	
1	0	0	0	0	513	593	0	510	39	8	
2	0	0	0	0	512	590	0	511	39	8	
3	0	0	0	0	512	584	0	518	39	8	
4	0	0	0	0	516	576	0	516	39	8	
5	0	0	0	0	512	571	0	515	38	8	
6	0	0	0	0	512	562	0	517	39	8	
7	0	0	0	0	517	558	0	513	39	8	
8	0	0	0	0	511	551	0	516	39	8	
9	0	0	0	0	512	548	0	510	39	8	
10	0	0	0	0	516	544	0	503	39	9	
11	0	0	0	0	515	541	0	509	39	9	
12	0	0	0	0	515	538	0	511	39	9	
13	0	0	0	0	517	536	0	527	39	9	
14	0	0	0	0	515	534	0	524	39	9	
15	0	0	0	0	510	529	0	508	39	9	
0	0	0	0	0	516	524	0	517	39	9	
1	0	0	0	0	520	517	0	513	39	9	
2	0	0	0	0	514	510	0	511	39	9	
3	0	0	0	0	508	503	0	505	39	10	
4	0	0	0	0	511	498	0	510	39	10	
5	0	0	0	0	512	499	0	511	39	10	
6	0	0	0	0	520	502	0	508	39	10	
7	0	0	0	0	518	505	0	507	39	9	
8	0	0	0	0	505	507	0	512	39	9	
9	0	0	0	0	509	509	0	508	39	9	
10	0	0	0	0	519	510	0	508	39	9	
11	0	0	0	0	514	508	0	516	39	9	
12	0	0	0	0	523	508	0	512	39	9	
13	0	0	0	0	507	507	0	511	38	8	
14	0	0	0	0	510	508	0	507	38	8	
15	0	0	0	0	509	507	0	509	39	8	
0	0	0	0	0	508	508	0	510	38	8	
1	0	0	0	0	511	508	0	511	38	8	
2	0	0	0	0	515	507	0	507	39	8	
3	0	0	0	0	508	508	0	510	39	7	
4	0	0	0	0	514	508	0	514	39	7	
5	0	0	0	0	516	508	0	523	39	7	
6	0	0	0	0	518	507	0	507	39	7	
7	0	0	0	0	511	507	0	513	39	7	
8	0	0	0	0	515	507	0	513	39	7	
9	0	0	0	0	509	506	0	516	38	7	
10	0	0	0	0	516	507	0	497	39	7	
11	0	0	0	0	515	506	0	512	39	7	
12	0	0	0	0	510	505	0	514	39	7	
13	0	0	0	0	511	507	0	507	38	7	
14	0	0	0	0	520	506	0	518	39	7	
15	0	0	0	0	503	507	0	501	39	7	
0	0	0	0	0	515	507	0	508	39	7	
1	0	0	0	0	510	507	0	525	38	7	
2	0	0	0	0	514	507	0	508	39	7	
3	0	0	0	0	511	508	0	508	39	7	
4	0	0	0	0	521	508	0	510	39	7	
5	0	0	0	0	516	509	0	504	39	7	
6	0	0	0	0	512	509	0	515	39	7	
7	0	0	0	0	517	509	0	510	39	7	
8	0	0	0	0	512	509	0	515	39	8	
9	0	0	0	0	514	506	0	513	39	8	
10	0	0	0	0	520	503	0	507	39	8	
11	0	0	0	0	510	504	0	507	39	8	
12	0	0	0	0	512	503	0	507	39	9	
13	0	0	0	0	514	504	0	508	39	9	
14	0	0	0	0	516	507	0	502	39	9	
15	0	0	0	0	517	508	0	508	39	10	
0	0	0	0	0	513	521	0	514	39	10	
1	0	0	0	0	508	549	0	504	39	10	
2	0	0	0	0	513	508	0	504	39	10	
3	0	0	0	0	510	306	0	504	39	10	
4	0	0	0	0	510	137	0	510	39	10	
5	0	0	0	0	514	380	0	508	38	11	
6	0	0	0	0	510	520	0	515	39	11	
7	0	0	0	0	520	569	0	500	39	11	
8	0	0	0	0	515	589	0	499	39	11	
9	0	0	0	0	502	588	0	506	39	11	
10	0	0	0	0	507	583	0	504	39	11	
11	0	0	0	0	510	575	0	513	39	11	
12	0	0	0	0	513	570	0	510	39	11	
13	0	0	0	0	515	563	0	507	39	11	
14	0	0	0	0	509	557	0	509	39	11	
15	0	0	0	0	514	551	0	511	39	11	
0	0	0	0	0	512	546	0	512	39	11	
1	0	0	0	0	513	543	0	521	39	11	
2	0	0	0	0	516	540	0	506	39	11	
3	0	0	0	0	511	537	0	493	39	11	
4	0	0	0	0	513	535	0	508	39	11	
5	0	0	0	0	516	532	0	505	39	11	
6	0	0	0	0	509	527	0	511	39	11	
7	0	0	0	0	515	521	0	506	39	11	
8	0	0	0	0	507	516	0	500	39	11	
9	0	0	0	0	516	511	0	516	39	11	
10	0	0	0	0	510	504	0	505	39	11	
11	0	0	0	0	512	500	0	510	39	11	
12	0	0	0	0	513	498	0	512	39	11	
13	0	0	0	0	511	500	0	521	39	11	
14	0	0	0	0	511	506	0	498	39	11	
15	0	0	0	0	511	508	0	502	39	11	
0	0	0	0	0	513	510	0	512	39	11	
1	0	0	0	0	510	511	0	510	39	11	
2	0	0	0	0	519	509	0	519	39	11	
3	0	0	0	0	514	508	0	512	39	11	
4	0	0	0	0	515	508	0	507	39	11	
5	0	0	0	0	516	508	0	513	39	11	
6	0	0	0	0	516	509	0	510	39	11	
7	0	0	0	0	509	509	0	503	39	11	
8	0	0	0	0	513	508	0	504	39	11	
9	0	0	0	0	513	510	0	509	39	11	
10	0	0	0	0	510	510	0	504	39	11	
11	0	0	0	0	513	511	0	508	39	11	
12	0	0	0	0	511	511	0	511	39	11	
13	0	0	0	0	515	511	0	515	39	11	
14	0	0	0	0	517	509	0	508	39	11	
15	0	0	0	0	511	510	0	510	39	11	
0	0	0	0	0	511	508	0	507	39	11	
1	0	0	0	0	512	509	0	505	39	11	
2	0	0	0	0	516	508	0	511	39	11	
3	0	0	0	0	515	509	0	508	39	11	
4	0	0	0	0	510	508	0	505	39	11	
5	0	0	0	0	515	509	0	518	39	11	
6	0	0	0	0	509	508	0	515	39	11	
7	0	0	0	0	512	509	0	507	39	11	
8	0	0	0	0	521	510	0	508	39	11	
9	0	0	0	0	514	508	0	507	39	11	
10	0	0	0	0	515	510	0	503	39	11	
11	0	0	0	0	514	511	0	502	39	11	
12	0	0	0	0	514	509	0	503	39	11	
13	0	0	0	0	504	504	0	507	39	11	
14	0	0	0	0	510	503	0	506	39	11	
15	0	0	0	0	512	504	0	512	39	11	
0	0	0	0	0	511	504	0	509	39	11	
1	0	0	0	0	511	506	0	504	39	11	
2	0	0	0	0	510	508	0	512	39	11	
3	0	0	0	0	516	512	0	518	39	11	
4	0	0	0	0	513	539	0	510	39	11	
5	0	0	0	0	511	536	0	513	39	11	
6	0	0	0	0	512	421	0	507	39	11	
7	0	0	0	0	507	206	0	508	39	11	
8	0	0	0	0	517	288	0	516	39	11	
9	0	0	0	0	511	491	0	517	38	11	
10	0	0	0	0	513	551	0	511	39	11	
11	0	0	0	0	511	572	0	503	39	10	
12	0	0	0	0	513	579	0	508	39	10	
13	0	0	0	0	510	576	0	510	39	10	
14	0	0	0	0	515	570	0	519	40	10	
15	0	0	0	0	519	562	0	512	40	10	
0	0	0	0	0	514	556	0	512	39	10	
1	0	0	0	0	509	551	0	519	39	10	
2	0	0	0	0	515	545	0	516	39	10	
3	0	0	0	0	509	540	0	508	39	10	
4	0	0	0	0	509	537	0	505	39	10	
5	0	0	0	0	514	533	0	517	39	10	
6	0	0	0	0	506	530	0	519	39	10	
7	0	0	0	0	511	526	0	500	40	10	
8	0	0	0	0	516	524	0	509	39	10	
9	0	0	0	0	513	521	0	509	39	11	
10	0	0	0	0	518	516	0	512	39	11	
11	0	0	0	0	510	512	0	510	39	11	
12	0	0	0	0	509	507	0	507	39	11	
13	0	0	0	0	518	502	0	508	39	11	
14	0	0	0	0	516	498	0	501	39	11	
15	0	0	0	0	512	499	0	512	39	11	
0	0	0	0	0	508	505	0	514	39	11	
1	0	0	0	0	511	509	0	507	39	11	
2	0	0	0	0	517	513	0	516	39	11	
3	0	0	0	0	505	512	0	510	39	11	
4	0	0	0	0	512	513	0	516	39	11	
5	0	0	0	0	517	513	0	510	39	10	
6	0	0	0	0	514	511	0	515	39	11	
7	0	0	0	0	515	512	0	508	39	11	
8	0	0	0	0	513	512	0	513	39	11	
9	0	0	0	0	510	511	0	506	39	11	
10	0	0	0	0	514	511	0	506	39	10	
11	0	0	0	0	515	511	0	510	39	10	
12	0	0	0	0	509	511	0	508	39	10	
13	0	0	0	0	508	509	0	512	39	10	
14	0	0	0	0	512	509	0	513	39	10	
15	0	0	0	0	511	509	0	512	39	10	
0	0	0	0	0	509	508	0	510	39	10	
1	0	0	0	0	517	507	0	514	39	10	
2	0	0	0	0	512	506	0	511	39	10	
3	0	0	0	0	515	507	0	508	39	10	
4	0	0	0	0	509	507	0	515	39	10	
5	0	0	0	0	516	507	0	512	39	10	
6	0	0	0	0	510	507	0	503	39	10	
7	0	0	0	0	513	508	0	517	39	10	
8	0	0	0	0	507	507	0	520	39	10	
9	0	0	0	0	513	507	0	513	39	10	
10	0	0	0	0	509	508	0	510	39	10	
11	0	0	0	0	515	508	0	510	39	10	
12	0	0	0	0	511	508	0	509	39	10	
13	0	0	0	0	517	507	0	524	39	10	
14	0	0	0	0	511	504	0	509	39	10	
15	0	0	0	0	511	504	0	515	39	10	
0	0	0	0	0	512	503	0	506	39	10	
1	0	0	0	0	507	504	0	514	39	10	
2	0	0	0	0	508	507	0	505	39	10	
3	0	0	0	0	515	508	0	511	39	10	
4	0	0	0	0	512	512	0	512	39	10	
5	0	0	0	0	510	541	0	496	39	10	
6	0	0	0	0	510	519	0	516	39	10	
7	0	0	0	0	512	376	0	516	39	10	
8	0	0	0	0	507	206	0	514	39	10	
9	0	0	0	0	516	374	0	516	39	10	
10	0	0	0	0	518	510	0	522	39	10	
11	0	0	0	0	508	552	0	520	39	10	
12	0	0	0	0	511	566	0	507	39	10	
13	0	0	0	0	512	567	0	507	39	10	
14	0	0	0	0	513	564	0	508	39	10	
15	0	0	0	0	514	559	0	518	39	10	
0	0	0	0	0	514	555	0	506	39	10	
1	0	0	0	0	510	549	0	508	39	10	
2	0	0	0	0	516	543	0	519	39	10	
3	0	0	0	0	508	538	0	516	39	10	
4	0	0	0	0	510	535	0	504	39	10	
5	0	0	0	0	505	530	0	501	39	10	
6	0	0	0	0	516	528	0	506	39	10	
7	0	0	0	0	513	524	0	513	39	10	
8	0	0	0	0	515	522	0	505	39	10	
9	0	0	0	0	516	519	0	503	39	10	
10	0	0	0	0	515	516	0	508	39	10	
11	0	0	0	0	512	513	0	508	39	10	
12	0	0	0	0	515	508	0	516	39	10	
13	0	0	0	0	514	503	0	507	39	10	
14	0	0	0	0	515	499	0	508	39	10	
15	0	0	0	0	507	496	0	520	39	11	
0	0	0	0	0	506	500	0	516	39	10	
1	0	0	0	0	513	505	0	501	39	10	
2	0	0	0	0	523	509	0	505	39	10	
3	0	0	0	0	510	512	0	512	39	10	
4	0	0	0	0	511	513	0	505	39	10	
5	0	0	0	0	516	513	0	501	39	10	
6	0	0	0	0	514	512	0	505	39	10	
7	0	0	0	0	509	510	0	509	39	10	
8	0	0	0	0	512	510	0	512	39	10	
9	0	0	0	0	511	511	0	516	39	11	
10	0	0	0	0	519	510	0	509	39	10	
11	0	0	0	0	517	509	0	515	39	11	
12	0	0	0	0	521	509	0	507	39	10	
13	0	0	0	0	513	507	0	513	39	11	
14	0	0	0	0	511	508	0	507	39	11	
15	0	0	0	0	524	507	0	502	39	11	
0	0	0	0	0	519	506	0	510	39	11	
1	0	0	0	0	519	506	0	507	39	11	
2	0	0	0	0	507	506	0	508	39	11	
3	0	0	0	0	514	505	0	512	39	11	
4	0	0	0	0	508	505	0	504	39	11	
5	0	0	0	0	512	504	0	510	39	11	
6	0	0	0	0	508	505	0	504	39	11	
7	0	0	0	0	512	504	0	504	39	11	
8	0	0	0	0	517	505	0	506	39	11	
9	0	0	0	0	510	506	0	513	39	11	
10	0	0	0	0	516	506	0	515	39	11	
11	0	0	0	0	508	508	0	504	39	11	
12	0	0	0	0	511	506	0	512	39	11	
13	0	0	0	0	517	507	0	519	39	11	
14	0	0	0	0	517	504	0	509	39	11	
15	0	0	0	0	512	501	0	514	39	11	
0	0	0	0	0	510	502	0	508	39	11	
1	0	0	0	0	512	503	0	506	39	11	
2	0	0	0	0	512	503	0	511	39	11	
3	0	0	0	0	513	505	0	505	39	11	
4	0	0	0	0	510	506	0	508	39	11	
5	0	0	0	0	510	519	0	516	39	11	
6	0	0	0	0	515	547	0	517	39	11	
7	0	0	0	0	504	503	0	507	39	11	
8	0	0	0	0	514	304	0	508	39	11	
9	0	0	0	0	513	175	0	508	39	11	
10	0	0	0	0	513	405	0	504	39	11	
11	0	0	0	0	513	524	0	504	39	11	
12	0	0	0	0	514	564	0	510	39	11	
13	0	0	0	0	511	578	0	513	39	11	
14	0	0	0	0	507	578	0	513	39	10	
15	0	0	0	0	508	573	0	519	39	10	
0	0	0	0	0	508	566	0	512	39	10	
1	0	0	0	0	510	561	0	508	39	10	
2	0	0	0	0	510	553	0	513	39	10	
3	0	0	0	0	513	550	0	513	40	10	
4	0	0	0	0	517	545	0	504	39	10	
5	0	0	0	0	511	539	0	505	39	10	
6	0	0	0	0	512	538	0	514	39	10	
7	0	0	0	0	511	534	0	510	39	10	
8	0	0	0	0	515	533	0	527	39	10	
9	0	0	0	0	517	530	0	511	39	10	
10	0	0	0	0	514	526	0	515	39	10	
11	0	0	0	0	508	524	0	512	39	10	
12	0	0	0	0	514	519	0	516	39	11	
13	0	0	0	0	517	514	0	514	39	11	
14	0	0	0	0	509	508	0	511	39	10	
15	0	0	0	0	511	499	0	512	39	11	
0	0	0	0	0	513	497	0	498	39	11	
1	0	0	0	0	514	498	0	512	39	11	
2	0	0	0	0	507	501	0	508	39	11	
3	0	0	0	0	513	504	0	511	39	11	
4	0	0	0	0	516	507	0	516	39	11	
5	0	0	0	0	514	507	0	512	39	11	
6	0	0	0	0	513	508	0	510	39	11	
7	0	0	0	0	515	508	0	508	39	11	
8	0	0	0	0	510	507	0	512	39	10	
9	0	0	0	0	510	505	0	513	39	11	
10	0	0	0	0	522	508	0	518	39	11	
11	0	0	0	0	516	507	0	513	39	11	
12	0	0	0	0	516	507	0	507	39	11	
13	0	0	0	0	513	508	0	508	39	10	
14	0	0	0	0	512	509	0	508	39	11	
15	0	0	0	0	512	508	0	507	39	11	
0	0	0	0	0	514	507	0	507	39	11	
1	0	0	0	0	517	507	0	513	39	11	
2	0	0	0	0	511	506	0	519	39	10	
3	0	0	0	0	510	504	0	510	39	11	
4	0	0	0	0	506	507	0	510	39	11	
5	0	0	0	0	514	505	0	512	39	11	
6	0	0	0	0	515	505	0	504	39	10	
7	0	0	0	0	510	505	0	503	39	10	
8	0	0	0	0	511	504	0	503	39	10	
9	0	0	0	0	515	504	0	507	39	10	
10	0	0	0	0	511	506	0	513	39	10	
11	0	0	0	0	512	507	0	515	39	10	
12	0	0	0	0	514	508	0	506	39	10	
13	0	0	0	0	579	507	0	514	39	10	
14	0	0	0	0	511	507	0	508	39	10	
15	0	0	0	0	510	502	0	516	39	10	
0	0	0	0	0	512	501	0	510	39	10	
1	0	0	0	0	501	502	0	510	39	10	
2	0	0	0	0	511	502	0	512	39	10	
3	0	0	0	0	508	504	0	515	39	10	
4	0	0	0	0	507	506	0	512	39	10	
5	0	0	0	0	512	510	0	511	39	10	
6	0	0	0	0	509	541	0	510	39	10	
7	0	0	0	0	519	536	0	511	39	10	
8	0	0	0	0	513	386	0	519	39	10	
9	0	0	0	0	498	160	0	510	39	10	
10	0	0	0	0	518	265	0	506	39	10	
11	0	0	0	0	511	488	0	512	39	10	
12	0	0	0	0	520	558	0	513	39	10	
13	0	0	0	0	491	583	0	510	39	10	
14	0	0	0	0	554	590	0	507	39	10	
15	0	0	0	0	507	585	0	512	39	10	
0	0	0	0	0	516	579	0	516	39	10	
1	0	0	0	0	512	572	0	519	39	10	
2	0	0	0	0	514	564	0	517	39	10	
3	0	0	0	0	511	558	0	505	40	10	
4	0	0	0	0	518	553	0	511	39	10	
5	0	0	0	0	515	548	0	511	39	10	
6	0	0	0	0	512	544	0	508	39	10	
7	0	0	0	0	512	541	0	509	39	10	
8	0	0	0	0	508	538	0	504	39	10	
9	0	0	0	0	514	535	0	509	39	10	
10	0	0	0	0	517	532	0	510	39	10	
11	0	0	0	0	504	529	0	514	39	10	
12	0	0	0	0	526	525	0	512	39	10	
13	0	0	0	0	511	519	0	511	39	10	
14	0	0	0	0	502	512	0	513	39	10	
15	0	0	0	0	505	505	0	508	39	10	
0	0	0	0	0	512	499	0	514	39	10	
1	0	0	0	0	514	498	0	508	39	10	
2	0	0	0	0	512	501	0	511	39	10	
3	0	0	0	0	511	504	0	518	39	10	
4	0	0	0	0	512	507	0	514	39	10	
5	0	0	0	0	511	508	0	516	39	10	
6	0	0	0	0	512	508	0	510	39	10	
7	0	0	0	0	513	507	0	513	40	10	
8	0	0	0	0	513	508	0	506	39	10	
9	0	0	0	0	514	508	0	508	39	10	
10	0	0	0	0	511	507	0	509	39	10	
11	0	0	0	0	510	507	0	508	39	10	
12	0	0	0	0	513	507	0	510	39	10	
13	0	0	0	0	515	506	0	510	39	10	
14	0	0	0	0	515	508	0	507	39	10	
15	0	0	0	0	514	506	0	504	39	10	
0	0	0	0	0	507	507	0	500	39	10	
1	0	0	0	0	510	507	0	512	39	10	
2	0	0	0	0	517	507	0	510	39	10	
3	0	0	0	0	556	507	0	512	39	10	
4	0	0	0	0	515	507	0	504	39	10	
5	0	0	0	0	504	507	0	509	39	10	
6	0	0	0	0	507	506	0	507	39	10	
7	0	0	0	0	511	507	0	503	39	10	
8	0	0	0	0	507	505	0	513	39	10	
9	0	0	0	0	516	505	0	504	39	10	
10	0	0	0	0	509	505	0	514	39	10	
11	0	0	0	0	511	506	0	508	39	10	
12	0	0	0	0	518	507	0	522	39	10	
13	0	0	0	0	516	507	0	512	39	10	
14	0	0	0	0	517	507	0	516	39	10	
15	0	0	0	0	509	508	0	510	39	10	
0	0	0	0	0	514	506	0	511	39	10	
1	0	0	0	0	510	502	0	510	39	10	
2	0	0	0	0	494	504	0	504	39	10	
3	0	0	0	0	514	504	0	512	39	10	
4	0	0	0	0	511	504	0	505	39	10	
5	0	0	0	0	511	507	0	509	39	10	
6	0	0	0	0	509	508	0	507	39	10	
7	0	0	0	0	512	515	0	512	39	10	
8	0	0	0	0	511	549	0	510	39	10	
9	0	0	0	0	517	523	0	511	39	10	
10	0	0	0	0	516	331	0	506	39	10	
11	0	0	0	0	508	135	0	508	39	10	
12	0	0	0	0	515	332	0	512	39	10	
13	0	0	0	0	516	512	0	512	39	10	
14	0	0	0	0	515	569	0	510	39	10	
15	0	0	0	0	517	590	0	503	39	10	
0	0	0	0	0	507	591	0	513	39	10	
1	0	0	0	0	515	586	0	508	39	10	
2	0	0	0	0	519	580	0	511	39	10	
3	0	0	0	0	511	571	0	507	39	10	
4	0	0	0	0	507	565	0	503	39	10	
5	0	0	0	0	516	558	0	512	39	10	
6	0	0	0	0	517	552	0	505	39	10	
7	0	0	0	0	515	547	0	523	39	10	
8	0	0	0	0	514	544	0	506	39	10	
9	0	0	0	0	518	542	0	506	39	10	
10	0	0	0	0	487	537	0	513	39	10	
11	0	0	0	0	510	535	0	508	39	10	
12	0	0	0	0	504	531	0	517	39	10	
13	0	0	0	0	513	527	0	512	39	10	
14	0	0	0	0	516	522	0	508	39	10	
15	0	0	0	0	505	516	0	500	39	10	
0	0	0	0	0	505	508	0	504	39	10	
1	0	0	0	0	506	501	0	508	39	10	
2	0	0	0	0	502	498	0	517	39	10	
3	0	0	0	0	515	498	0	509	39	10	
4	0	0	0	0	511	500	0	510	39	10	
5	0	0	0	0	512	504	0	510	39	10	
6	0	0	0	0	512	505	0	509	39	10	
7	0	0	0	0	511	507	0	510	39	10	
8	0	0	0	0	516	508	0	507	39	10	
9	0	0	0	0	515	507	0	507	39	10	
10	0	0	0	0	512	507	0	507	39	10	
11	0	0	0	0	514	507	0	503	39	10	
12	0	0	0	0	510	506	0	511	39	10	
13	0	0	0	0	515	506	0	516	39	10	
14	0	0	0	0	492	507	0	508	39	10	
15	0	0	0	0	516	507	0	511	39	10	
0	0	0	0	0	500	506	0	514	39	10	
1	0	0	0	0	521	506	0	508	39	10	
2	0	0	0	0	510	505	0	513	39	10	
3	0	0	0	0	496	505	0	514	39	10	
4	0	0	0	0	510	505	0	505	39	10	
5	0	0	0	0	512	505	0	511	39	10	
6	0	0	0	0	513	505	0	514	39	10	
7	0	0	0	0	509	505	0	508	39	10	
8	0	0	0	0	512	505	0	507	39	10	
9	0	0	0	0	513	505	0	508	39	10	
10	0	0	0	0	506	505	0	518	39	10	
11	0	0	0	0	518	504	0	512	39	10	
12	0	0	0	0	512	505	0	524	39	10	
13	0	0	0	0	508	504	0	510	39	10	
14	0	0	0	0	513	507	0	506	39	10	
15	0	0	0	0	512	508	0	508	39	10	
0	0	0	0	0	496	507	0	504	39	10	
1	0	0	0	0	516	502	0	508	39	10	
2	0	0	0	0	511	503	0	510	39	10	
3	0	0	0	0	514	501	0	512	39	10	
4	0	0	0	0	517	501	0	504	39	10	
5	0	0	0	0	512	504	0	507	39	10	
6	0	0	0	0	504	506	0	505	39	10	
7	0	0	0	0	513	511	0	506	39	10	
8	0	0	0	0	512	542	0	511	39	10	
9	0	0	0	0	512	531	0	512	39	10	
10	0	0	0	0	514	376	0	509	39	10	
11	0	0	0	0	512	155	0	511	39	10	
12	0	0	0	0	516	284	0	514	39	10	
13	0	0	0	0	511	495	0	516	39	10	
14	0	0	0	0	508	560	0	520	39	10	
15	0	0	0	0	513	582	0	529	39	10	
0	0	0	0	0	509	587	0	511	39	10	
1	0	0	0	0	513	581	0	509	39	10	
2	0	0	0	0	516	576	0	507	39	10	
3	0	0	0	0	495	569	0	502	39	10	
4	0	0	0	0	512	565	0	516	39	10	
5	0	0	0	0	518	557	0	515	39	10	
6	0	0	0	0	516	552	0	512	40	10	
7	0	0	0	0	504	548	0	504	41	10	
8	0	0	0	0	513	543	0	505	40	9	
9	0	0	0	0	504	539	0	512	40	8	
10	0	0	0	0	512	537	0	515	40	6	
11	0	0	0	0	511	534	0	516	40	5	
12	0	0	0	0	508	532	0	509	40	4	
13	0	0	0	0	515	528	0	512	41	5	
14	0	0	0	0	512	524	0	521	40	6	
15	0	0	0	0	513	518	0	504	39	8	
0	0	0	0	0	510	512	0	501	37	9	
1	0	0	0	0	507	505	0	508	37	9	
2	0	0	0	0	507	502	0	514	38	9	
3	0	0	0	0	515	502	0	509	39	10	
4	0	0	0	0	487	504	0	505	38	10	
5	0	0	0	0	513	504	0	508	37	10	
6	0	0	0	0	518	506	0	510	36	10	
7	0	0	0	0	498	505	0	520	36	10	
8	0	0	0	0	524	505	0	525	37	10	
9	0	0	0	0	504	504	0	505	38	10	
10	0	0	0	0	511	504	0	517	39	10	
11	0	0	0	0	511	504	0	508	39	11	
12	0	0	0	0	500	504	0	511	39	10	
13	0	0	0	0	513	504	0	516	39	11	
14	0	0	0	0	513	506	0	509	39	11	
15	0	0	0	0	511	507	0	506	39	11	
0	0	0	0	0	544	507	0	516	38	11	
1	0	0	0	0	513	504	0	509	37	10	
2	0	0	0	0	514	504	0	503	37	10	
3	0	0	0	0	512	504	0	508	37	10	
4	0	0	0	0	510	504	0	512	37	10	
5	0	0	0	0	512	503	0	516	37	10	
6	0	0	0	0	515	503	0	513	39	9	
7	0	0	0	0	508	503	0	515	40	9	
8	0	0	0	0	514	504	0	514	40	8	
9	0	0	0	0	512	503	0	514	40	7	
10	0	0	0	0	506	504	0	513	40	5	
11	0	0	0	0	516	504	0	526	40	4	
12	0	0	0	0	511	504	0	507	40	5	
13	0	0	0	0	521	504	0	506	39	6	
14	0	0	0	0	509	504	0	501	40	6	
15	0	0	0	0	509	504	0	507	40	7	
0	0	0	0	0	507	504	0	502	40	8	
1	0	0	0	0	512	504	0	505	40	9	
2	0	0	0	0	498	505	0	510	39	10	
3	0	0	0	0	516	505	0	518	39	10	
4	0	0	0	0	513	505	0	514	39	10	
5	0	0	0	0	518	505	0	507	39	10	
6	0	0	0	0	518	507	0	510	39	10	
7	0	0	0	0	515	506	0	510	40	10	
8	0	0	0	0	515	503	0	508	39	10	
9	0	0	0	0	510	503	0	509	39	10	
10	0	0	0	0	510	504	0	509	39	10	
11	0	0	0	0	514	503	0	514	40	10	
12	0	0	0	0	520	504	0	505	39	10	
13	0	0	0	0	508	508	0	506	39	10	
14	0	0	0	0	516	509	0	516	39	10	
15	0	0	0	0	513	522	0	511	39	10	
0	0	0	0	0	515	550	0	511	39	10	
1	0	0	0	0	507	499	0	509	39	10	
2	0	0	0	0	508	275	0	512	39	10	
3	0	0	0	0	514	138	0	503	39	10	
4	0	0	0	0	521	402	0	513	39	10	
5	0	0	0	0	513	530	0	516	39	10	
6	0	0	0	0	518	576	0	515	39	10	
7	0	0	0	0	509	592	0	525	40	10	
8	0	0	0	0	512	591	0	513	39	10	
9	0	0	0	0	507	586	0	517	39	10	
10	0	0	0	0	518	579	0	511	39	10	
11	0	0	0	0	522	572	0	508	39	10	
12	0	0	0	0	495	565	0	506	39	10	
13	0	0	0	0	517	558	0	509	39	10	
14	0	0	0	0	507	551	0	514	39	10	
15	0	0	0	0	515	546	0	507	39	10	
0	0	0	0	0	517	543	0	515	39	10	
1	0	0	0	0	510	540	0	516	39	10	
2	0	0	0	0	511	537	0	508	39	10	
3	0	0	0	0	514	534	0	508	39	10	
4	0	0	0	0	519	529	0	506	39	10	
5	0	0	0	0	522	525	0	522	39	10	
6	0	0	0	0	515	517	0	503	39	10	
7	0	0	0	0	507	510	0	504	39	10	
8	0	0	0	0	510	503	0	516	39	10	
9	0	0	0	0	513	496	0	507	39	10	
10	0	0	0	0	509	493	0	515	39	10	
11	0	0	0	0	515	495	0	510	40	10	
12	0	0	0	0	511	499	0	505	39	10	
13	0	0	0	0	508	502	0	505	39	10	
14	0	0	0	0	522	506	0	507	39	10	
15	0	0	0	0	510	508	0	508	39	10	
0	0	0	0	0	505	510	0	508	39	10	
1	0	0	0	0	512	509	0	510	38	10	
2	0	0	0	0	511	508	0	500	39	10	
3	0	0	0	0	508	507	0	513	39	10	
4	0	0	0	0	511	509	0	517	39	10	
5	0	0	0	0	512	508	0	511	39	10	
6	0	0	0	0	515	509	0	508	39	10	
7	0	0	0	0	516	511	0	510	39	10	
8	0	0	0	0	518	511	0	515	39	10	
9	0	0	0	0	520	512	0	512	39	10	
10	0	0	0	0	508	510	0	516	39	10	
11	0	0	0	0	516	510	0	508	39	10	
12	0	0	0	0	515	511	0	508	39	10	
13	0	0	0	0	519	510	0	521	38	10	
14	0	0	0	0	514	511	0	515	39	10	
15	0	0	0	0	514	509	0	518	39	10	
0	0	0	0	0	513	510	0	510	39	10	
1	0	0	0	0	508	509	0	515	39	10	
2	0	0	0	0	512	510	0	519	39	10	
3	0	0	0	0	513	510	0	519	39	10	
4	0	0	0	0	511	510	0	517	39	10	
5	0	0	0	0	511	509	0	512	39	10	
6	0	0	0	0	511	508	0	505	39	10	
7	0	0	0	0	515	508	0	501	39	10	
8	0	0	0	0	514	510	0	518	39	10	
9	0	0	0	0	521	508	0	516	39	10	
10	0	0	0	0	504	509	0	512	39	10	
11	0	0	0	0	512	508	0	499	39	10	
12	0	0	0	0	511	510	0	516	39	10	
13	0	0	0	0	511	508	0	499	39	10	
14	0	0	0	0	509	510	0	512	39	10	
15	0	0	0	0	506	511	0	508	39	10	
0	0	0	0	0	514	510	0	504	39	10	
1	0	0	0	0	518	510	0	509	39	10	
2	0	0	0	0	518	511	0	514	39	10	
3	0	0	0	0	515	512	0	511	39	10	
4	0	0	0	0	513	510	0	507	39	10	
5	0	0	0	0	519	507	0	504	39	10	
6	0	0	0	0	513	507	0	508	39	10	
7	0	0	0	0	512	507	0	509	39	10	
8	0	0	0	0	508	507	0	502	39	10	
9	0	0	0	0	517	509	0	510	39	10	
10	0	0	0	0	517	511	0	507	39	10	
11	0	0	0	0	512	516	0	509	40	10	
12	0	0	0	0	510	547	0	512	39	10	
13	0	0	0	0	515	524	0	516	39	10	
14	0	0	0	0	514	350	0	503	39	10	
15	0	0	0	0	507	140	0	508	39	10	
0	0	0	0	0	511	317	0	508	39	10	
1	0	0	0	0	512	503	0	521	39	10	
2	0	0	0	0	508	565	0	512	39	10	
3	0	0	0	0	511	590	0	500	39	10	
4	0	0	0	0	520	594	0	505	39	10	
5	0	0	0	0	520	591	0	510	39	10	
6	0	0	0	0	508	584	0	505	39	10	
7	0	0	0	0	516	576	0	511	40	10	
8	0	0	0	0	517	569	0	508	39	10	
9	0	0	0	0	515	562	0	518	39	10	
10	0	0	0	0	516	556	0	508	39	10	
11	0	0	0	0	524	551	0	508	39	10	
12	0	0	0	0	515	545	0	501	39	10	
13	0	0	0	0	511	543	0	508	39	10	
14	0	0	0	0	511	539	0	510	39	10	
15	0	0	0	0	511	537	0	507	39	10	
0	0	0	0	0	516	535	0	501	39	10	
1	0	0	0	0	513	533	0	501	39	10	
2	0	0	0	0	509	527	0	506	39	10	
3	0	0	0	0	511	520	0	521	39	10	
4	0	0	0	0	518	517	0	504	39	10	
5	0	0	0	0	521	510	0	511	39	10	
6	0	0	0	0	512	503	0	510	39	10	
7	0	0	0	0	514	500	0	508	39	10	
8	0	0	0	0	518	502	0	511	39	10	
9	0	0	0	0	514	504	0	517	39	10	
10	0	0	0	0	510	506	0	511	39	10	
11	0	0	0	0	509	510	0	515	39	10	
12	0	0	0	0	511	511	0	513	39	10	
13	0	0	0	0	511	511	0	515	39	10	
14	0	0	0	0	506	511	0	511	39	10	
15	0	0	0	0	516	509	0	503	39	10	
0	0	0	0	0	500	509	0	508	39	10	
1	0	0	0	0	514	509	0	516	39	10	
2	0	0	0	0	505	510	0	506	39	10	
3	0	0	0	0	500	510	0	516	39	10	
4	0	0	0	0	520	511	0	513	39	10	
5	0	0	0	0	516	510	0	506	39	10	
6	0	0	0	0	509	510	0	515	39	10	
7	0	0	0	0	508	511	0	514	39	10	
8	0	0	0	0	508	510	0	510	39	10	
9	0	0	0	0	510	509	0	515	39	10	
10	0	0	0	0	513	511	0	507	39	10	
11	0	0	0	0	521	509	0	508	39	10	
12	0	0	0	0	515	509	0	514	39	10	
13	0	0	0	0	519	507	0	508	39	10	
14	0	0	0	0	524	506	0	517	39	10	
15	0	0	0	0	518	508	0	517	39	10	
0	0	0	0	0	515	505	0	497	39	10	
1	0	0	0	0	510	506	0	510	39	10	
2	0	0	0	0	513	506	0	502	39	10	
3	0	0	0	0	505	504	0	508	39	10	
4	0	0	0	0	515	505	0	509	39	10	
5	0	0	0	0	515	505	0	506	39	10	
6	0	0	0	0	504	506	0	508	39	10	
7	0	0	0	0	517	504	0	513	39	10	
8	0	0	0	0	513	504	0	506	39	10	
9	0	0	0	0	507	504	0	507	39	10	
10	0	0	0	0	513	505	0	512	39	10	
11	0	0	0	0	509	505	0	505	39	10	
12	0	0	0	0	511	507	0	508	39	10	
13	0	0	0	0	518	506	0	513	39	10	
14	0	0	0	0	500	507	0	514	39	10	
15	0	0	0	0	511	508	0	517	39	10	
0	0	0	0	0	516	507	0	510	39	10	
1	0	0	0	0	521	500	0	507	39	10	
2	0	0	0	0	515	503	0	511	39	10	
3	0	0	0	0	513	502	0	507	39	10	
4	0	0	0	0	508	502	0	510	39	10	
5	0	0	0	0	509	504	0	504	39	10	
6	0	0	0	0	502	505	0	509	39	10	
7	0	0	0	0	513	510	0	503	39	10	
8	0	0	0	0	506	538	0	513	39	10	
9	0	0	0	0	513	527	0	515	39	10	
10	0	0	0	0	515	385	0	521	39	10	
11	0	0	0	0	509	159	0	510	39	10	
12	0	0	0	0	520	272	0	507	39	10	
13	0	0	0	0	517	485	0	514	39	10	
14	0	0	0	0	512	556	0	511	39	10	
15	0	0	0	0	519	583	0	517	39	10	
0	0	0	0	0	512	588	0	515	39	10	
1	0	0	0	0	510	585	0	511	39	10	
2	0	0	0	0	520	579	0	512	39	10	
3	0	0	0	0	515	572	0	509	39	10	
4	0	0	0	0	508	564	0	511	39	10	
5	0	0	0	0	507	557	0	514	39	10	
6	0	0	0	0	513	550	0	506	39	10	
7	0	0	0	0	515	545	0	504	39	10	
8	0	0	0	0	513	540	0	508	39	10	
9	0	0	0	0	517	536	0	505	39	10	
10	0	0	0	0	515	534	0	513	39	10	
11	0	0	0	0	515	531	0	503	39	10	
12	0	0	0	0	515	528	0	507	39	10	
13	0	0	0	0	519	526	0	516	39	10	
14	0	0	0	0	512	521	0	508	39	10	
15	0	0	0	0	517	515	0	512	39	10	
0	0	0	0	0	505	510	0	511	39	10	
1	0	0	0	0	524	503	0	510	39	10	
2	0	0	0	0	521	496	0	515	39	10	
3	0	0	0	0	518	492	0	506	39	10	
4	0	0	0	0	518	495	0	509	39	10	
5	0	0	0	0	512	498	0	526	39	10	
6	0	0	0	0	513	500	0	517	39	10	
7	0	0	0	0	513	502	0	506	39	10	
8	0	0	0	0	517	502	0	516	39	10	
9	0	0	0	0	519	502	0	507	39	10	
10	0	0	0	0	512	501	0	515	39	10	
11	0	0	0	0	515	501	0	510	39	10	
12	0	0	0	0	508	502	0	505	39	10	
13	0	0	0	0	521	503	0	519	39	10	
14	0	0	0	0	510	502	0	515	39	10	
15	0	0	0	0	515	502	0	514	39	10	
0	0	0	0	0	511	502	0	501	39	10	
1	0	0	0	0	512	502	0	519	39	10	
2	0	0	0	0	520	502	0	512	39	10	
3	0	0	0	0	517	502	0	509	39	10	
4	0	0	0	0	518	501	0	513	39	10	
5	0	0	0	0	512	502	0	513	39	10	
6	0	0	0	0	519	502	0	511	39	10	
7	0	0	0	0	516	500	0	504	39	10	
8	0	0	0	0	514	500	0	502	39	10	
9	0	0	0	0	508	500	0	510	39	10	
10	0	0	0	0	513	500	0	508	39	10	
11	0	0	0	0	505	500	0	508	39	10	
12	0	0	0	0	511	501	0	508	39	10	
13	0	0	0	0	516	502	0	511	39	10	
14	0	0	0	0	515	500	0	511	39	10	
15	0	0	0	0	508	501	0	502	39	10	
0	0	0	0	0	515	501	0	515	39	10	
1	0	0	0	0	516	500	0	503	39	10	
2	0	0	0	0	509	501	0	502	39	10	
3	0	0	0	0	513	500	0	513	39	10	
4	0	0	0	0	516	501	0	505	39	10	
5	0	0	0	0	516	502	0	509	39	10	
6	0	0	0	0	512	501	0	504	39	10	
7	0	0	0	0	514	501	0	515	39	10	
8	0	0	0	0	511	503	0	495	39	10	
9	0	0	0	0	514	502	0	508	39	10	
10	0	0	0	0	521	498	0	513	39	10	
11	0	0	0	0	509	499	0	512	39	10	
12	0	0	0	0	513	497	0	507	39	10	
13	0	0	0	0	512	497	0	513	39	10	
14	0	0	0	0	512	500	0	507	39	10	
15	0	0	0	0	517	502	0	514	39	10	
0	0	0	0	0	515	508	0	511	39	10	
1	0	0	0	0	510	538	0	502	39	10	
2	0	0	0	0	512	515	0	504	39	10	
3	0	0	0	0	517	358	0	501	39	10	
4	0	0	0	0	512	150	0	510	39	10	
5	0	0	0	0	519	313	0	512	39	10	
6	0	0	0	0	513	495	0	516	39	10	
7	0	0	0	0	516	552	0	507	39	10	
8	0	0	0	0	522	576	0	502	39	10	
9	0	0	0	0	516	578	0	511	39	10	
10	0	0	0	0	526	578	0	509	39	10	
11	0	0	0	0	510	572	0	514	39	10	
12	0	0	0	0	515	565	0	514	39	10	
13	0	0	0	0	504	559	0	504	39	10	
14	0	0	0	0	513	552	0	508	39	10	
15	0	0	0	0	509	546	0	512	39	10	
0	0	0	0	0	515	543	0	505	39	10	
1	0	0	0	0	510	539	0	513	39	10	
2	0	0	0	0	515	536	0	514	39	10	
3	0	0	0	0	508	531	0	512	39	10	
4	0	0	0	0	511	530	0	508	39	10	
5	0	0	0	0	519	526	0	510	39	10	
6	0	0	0	0	503	523	0	510	39	10	
7	0	0	0	0	511	518	0	501	39	10	
8	0	0	0	0	520	513	0	509	39	10	
9	0	0	0	0	519	509	0	510	39	10	
10	0	0	0	0	508	505	0	513	39	10	
11	0	0	0	0	515	497	0	504	39	10	
12	0	0	0	0	520	496	0	511	39	10	
13	0	0	0	0	510	498	0	505	39	10	
14	0	0	0	0	511	503	0	510	39	10	
15	0	0	0	0	519	505	0	510	39	10	
0	0	0	0	0	514	508	0	508	39	10	
1	0	0	0	0	514	509	0	508	39	10	
2	0	0	0	0	515	509	0	506	39	10	
3	0	0	0	0	511	508	0	517	39	10	
4	0	0	0	0	520	508	0	504	39	10	
5	0	0	0	0	519	507	0	513	39	10	
6	0	0	0	0	515	509	0	513	39	10	
7	0	0	0	0	515	509	0	499	39	10	
8	0	0	0	0	513	508	0	509	39	10	
9	0	0	0	0	515	508	0	516	39	10	
10	0	0	0	0	510	508	0	511	39	10	
11	0	0	0	0	508	508	0	512	39	10	
12	0	0	0	0	515	507	0	503	39	10	
13	0	0	0	0	517	507	0	510	39	10	
14	0	0	0	0	516	508	0	518	39	10	
15	0	0	0	0	516	508	0	505	39	10	
0	0	0	0	0	516	508	0	509	39	9	
1	0	0	0	0	511	508	0	514	39	9	
2	0	0	0	0	513	509	0	500	39	8	
3	0	0	0	0	513	508	0	495	39	8	
4	0	0	0	0	509	510	0	507	39	7	
5	0	0	0	0	516	510	0	507	39	7	
6	0	0	0	0	518	512	0	509	39	7	
7	0	0	0	0	523	510	0	515	40	7	
8	0	0	0	0	513	510	0	505	39	6	
9	0	0	0	0	514	510	0	510	39	6	
10	0	0	0	0	505	508	0	504	39	6	
11	0	0	0	0	517	508	0	505	39	6	
12	0	0	0	0	514	508	0	512	39	6	
13	0	0	0	0	515	507	0	508	39	6	
14	0	0	0	0	515	508	0	518	39	6	
15	0	0	0	0	508	508	0	507	40	6	
0	0	0	0	0	521	512	0	510	39	5	
1	0	0	0	0	515	510	0	518	39	5	
2	0	0	0	0	510	504	0	515	39	5	
3	0	0	0	0	519	505	0	508	39	5	
4	0	0	0	0	517	507	0	509	39	5	
5	0	0	0	0	512	505	0	506	39	5	
6	0	0	0	0	507	508	0	514	39	5	
7	0	0	0	0	515	508	0	512	39	5	
8	0	0	0	0	518	513	0	509	39	5	
9	0	0	0	0	516	540	0	514	39	5	
10	0	0	0	0	518	532	0	508	39	5	
11	0	0	0	0	513	396	0	509	39	5	
12	0	0	0	0	512	166	0	504	39	5	
13	0	0	0	0	512	251	0	502	39	5	
14	0	0	0	0	518	478	0	511	39	5	
15	0	0	0	0	508	554	0	516	39	5	
0	0	0	0	0	510	584	0	509	39	5	
1	0	0	0	0	506	591	0	517	39	5	
2	0	0	0	0	513	588	0	510	39	5	
3	0	0	0	0	515	582	0	510	39	5	
4	0	0	0	0	517	575	0	510	39	5	
5	0	0	0	0	512	568	0	511	39	5	
6	0	0	0	0	510	563	0	512	39	5	
7	0	0	0	0	517	556	0	505	39	5	
8	0	0	0	0	514	550	0	518	39	5	
9	0	0	0	0	518	546	0	503	39	5	
10	0	0	0	0	513	542	0	514	39	5	
11	0	0	0	0	520	540	0	513	39	5	
12	0	0	0	0	512	536	0	511	39	5	
13	0	0	0	0	513	532	0	512	39	5	
14	0	0	0	0	526	531	0	511	39	5	
15	0	0	0	0	516	526	0	503	39	5	
0	0	0	0	0	478	520	0	504	39	5	
1	0	0	0	0	514	513	0	502	39	5	
2	0	0	0	0	510	508	0	506	39	5	
3	0	0	0	0	512	502	0	511	39	5	
4	0	0	0	0	513	499	0	510	39	5	
5	0	0	0	0	515	500	0	505	39	6	
6	0	0	0	0	507	503	0	506	39	6	
7	0	0	0	0	514	506	0	511	39	6	
8	0	0	0	0	515	509	0	520	39	6	
9	0	0	0	0	515	511	0	517	39	6	
10	0	0	0	0	514	511	0	513	39	6	
11	0	0	0	0	513	509	0	512	39	6	
12	0	0	0	0	517	509	0	508	39	6	
13	0	0	0	0	513	509	0	515	39	6	
14	0	0	0	0	514	508	0	511	39	6	
15	0	0	0	0	511	509	0	513	39	6	
0	0	0	0	0	517	511	0	508	39	6	
1	0	0	0	0	510	510	0	502	39	6	
2	0	0	0	0	509	509	0	507	39	6	
3	0	0	0	0	513	509	0	510	39	6	
4	0	0	0	0	512	509	0	513	39	6	
5	0	0	0	0	515	509	0	510	39	6	
6	0	0	0	0	513	509	0	504	39	6	
7	0	0	0	0	512	508	0	515	39	6	
8	0	0	0	0	508	511	0	508	39	6	
9	0	0	0	0	515	510	0	514	39	6	
10	0	0	0	0	513	510	0	508	39	6	
11	0	0	0	0	514	511	0	512	39	6	
12	0	0	0	0	509	510	0	501	39	6	
13	0	0	0	0	515	511	0	505	39	6	
14	0	0	0	0	511	511	0	518	39	6	
15	0	0	0	0	508	510	0	523	39	6	
0	0	0	0	0	518	510	0	515	39	6	
1	0	0	0	0	512	507	0	509	39	6	
2	0	0	0	0	519	508	0	512	39	6	
3	0	0	0	0	515	509	0	507	39	6	
4	0	0	0	0	512	509	0	515	39	6	
5	0	0	0	0	515	508	0	509	39	6	
6	0	0	0	0	505	511	0	506	39	6	
7	0	0	0	0	516	510	0	507	39	6	
8	0	0	0	0	510	506	0	509	39	6	
9	0	0	0	0	514	507	0	503	39	6	
10	0	0	0	0	518	504	0	507	39	6	
11	0	0	0	0	511	505	0	508	39	6	
12	0	0	0	0	515	507	0	514	39	6	
13	0	0	0	0	518	510	0	515	39	7	
14	0	0	0	0	509	511	0	512	39	6	
15	0	0	0	0	519	531	0	512	39	6	
0	0	0	0	0	504	543	0	506	39	6	
1	0	0	0	0	500	458	0	515	39	6	
2	0	0	0	0	662	227	0	504	39	6	
3	0	0	0	0	484	191	0	503	40	6	
4	0	0	0	0	514	446	0	509	40	5	
5	0	0	0	0	513	542	0	514	39	5	
6	0	0	0	0	519	579	0	513	40	5	
7	0	0	0	0	513	591	0	512	40	5	
8	0	0	0	0	519	590	0	505	39	5	
9	0	0	0	0	509	583	0	508	38	4	
10	0	0	0	0	515	577	0	512	38	4	
11	0	0	0	0	512	570	0	514	39	4	
12	0	0	0	0	514	564	0	514	39	4	
13	0	0	0	0	516	557	0	510	39	4	
14	0	0	0	0	517	553	0	514	39	4	
15	0	0	0	0	510	548	0	509	40	4	
0	0	0	0	0	512	543	0	507	40	4	
1	0	0	0	0	513	541	0	508	39	4	
2	0	0	0	0	514	538	0	514	39	4	
3	0	0	0	0	519	536	0	511	39	4	
4	0	0	0	0	519	535	0	510	39	4	
5	0	0	0	0	507	531	0	507	39	4	
6	0	0	0	0	515	524	0	516	39	4	
7	0	0	0	0	513	517	0	508	40	4	
8	0	0	0	0	512	511	0	514	39	4	
9	0	0	0	0	512	503	0	512	39	4	
10	0	0	0	0	517	500	0	516	39	4	
11	0	0	0	0	511	502	0	509	39	4	
12	0	0	0	0	511	504	0	504	39	4	
13	0	0	0	0	509	505	0	511	39	4	
14	0	0	0	0	518	508	0	513	39	4	
15	0	0	0	0	516	508	0	511	39	4	
0	0	0	0	0	516	510	0	514	39	4	
1	0	0	0	0	507	509	0	510	39	4	
2	0	0	0	0	515	510	0	510	39	4	
3	0	0	0	0	517	507	0	510	39	4	
4	0	0	0	0	516	508	0	513	39	4	
5	0	0	0	0	506	507	0	508	39	4	
6	0	0	0	0	513	507	0	506	39	4	
7	0	0	0	0	513	506	0	506	40	4	
8	0	0	0	0	513	507	0	510	39	4	
9	0	0	0	0	514	506	0	502	39	4	
10	0	0	0	0	512	507	0	503	39	4	
11	0	0	0	0	509	508	0	514	40	4	
12	0	0	0	0	513	507	0	517	40	4	
13	0	0	0	0	507	505	0	516	39	4	
14	0	0	0	0	516	508	0	520	40	4	
15	0	0	0	0	512	507	0	507	40	4	
0	0	0	0	0	517	510	0	509	39	4	
1	0	0	0	0	510	509	0	505	38	4	
2	0	0	0	0	511	509	0	503	38	4	
3	0	0	0	0	511	508	0	503	39	4	
4	0	0	0	0	516	509	0	512	39	4	
5	0	0	0	0	511	508	0	507	39	4	
6	0	0	0	0	511	508	0	508	39	4	
7	0	0	0	0	515	507	0	504	39	4	
8	0	0	0	0	507	507	0	500	39	4	
9	0	0	0	0	513	509	0	510	39	4	
10	0	0	0	0	510	510	0	506	39	4	
11	0	0	0	0	516	509	0	516	38	4	
12	0	0	0	0	515	509	0	512	38	4	
13	0	0	0	0	516	510	0	499	38	4	
14	0	0	0	0	514	508	0	502	39	4	
15	0	0	0	0	506	505	0	510	39	4	
0	0	0	0	0	518	506	0	512	39	4	
1	0	0	0	0	510	504	0	506	39	4	
2	0	0	0	0	504	504	0	500	39	4	
3	0	0	0	0	509	506	0	508	39	4	
4	0	0	0	0	515	507	0	517	39	4	
5	0	0	0	0	515	514	0	509	39	4	
6	0	0	0	0	512	545	0	508	39	4	
7	0	0	0	0	508	516	0	508	40	4	
8	0	0	0	0	517	353	0	512	39	4	
9	0	0	0	0	518	153	0	510	39	4	
