# OpenSignals Text File Format. Version 1
# {"84:BA:20:5E:FF:67": {"position": 0, "device": "bitalino_rev", "device name": "84:BA:20:5E:FF:67", "device connection": "BTH84:BA:20:5E:FF:67", "sampling rate": 100, "resolution": [4, 1, 1, 1, 1, 10, 10, 10, 10, 6, 6], "firmware version": 1282, "comments": "", "keywords": "", "mode": 0, "sync interval": 2, "date": "2024-3-4", "time": "17:7:24.79", "channels": [1, 2, 3, 4, 5, 6], "sensor": ["RAW", "RAW", "RAW", "RAW", "RAW", "RAW"], "label": ["A1", "A2", "A3", "A4", "A5", "A6"], "column": ["nSeq", "I1", "I2", "O1", "O2", "A1", "A2", "A3", "A4", "A5", "A6"], "special": [{}, {}, {}, {}, {}, {}], "digital IO": [0, 0, 1, 1]}}
# EndOfHeader
0	0	0	0	0	545	513	191	120	39	20	
1	0	0	0	0	511	509	191	370	39	20	
2	0	0	0	0	545	514	191	133	39	20	
3	0	0	0	0	512	509	191	366	39	19	
4	0	0	0	0	546	513	191	124	39	19	
5	0	0	0	0	513	508	191	365	39	19	
6	0	0	0	0	542	514	191	79	39	19	
7	0	0	0	0	514	508	191	240	39	19	
8	0	0	0	0	539	514	191	119	39	19	
9	0	0	0	0	518	511	191	255	39	19	
10	0	0	0	0	545	512	191	213	39	19	
11	0	0	0	0	517	507	191	423	39	19	
12	0	0	0	0	544	514	191	201	39	19	
13	0	0	0	0	509	510	191	320	39	19	
14	0	0	0	0	541	513	191	205	39	19	
15	0	0	0	0	512	508	191	348	39	19	
0	0	0	0	0	542	513	191	241	39	19	
1	0	0	0	0	519	507	191	462	39	19	
2	0	0	0	0	539	515	191	240	39	19	
3	0	0	0	0	515	509	191	420	39	19	
4	0	0	0	0	535	508	191	265	39	19	
5	0	0	0	0	512	505	191	419	39	19	
6	0	0	0	0	543	510	191	264	39	19	
7	0	0	0	0	513	508	190	401	39	19	
8	0	0	0	0	545	511	191	284	39	19	
9	0	0	0	0	513	508	190	450	39	19	
10	0	0	0	0	540	512	190	284	39	19	
11	0	0	0	0	517	510	190	379	39	19	
12	0	0	0	0	546	511	190	271	39	19	
13	0	0	0	0	513	508	190	376	39	19	
14	0	0	0	0	531	518	190	282	39	19	
15	0	0	0	0	521	509	190	392	39	19	
0	0	0	0	0	536	513	190	323	39	19	
1	0	0	0	0	514	512	190	412	39	19	
2	0	0	0	0	540	513	190	344	39	19	
3	0	0	0	0	510	511	190	451	39	19	
4	0	0	0	0	536	514	190	344	39	19	
5	0	0	0	0	513	513	190	471	39	19	
6	0	0	0	0	536	514	190	359	39	19	
7	0	0	0	0	512	509	190	495	39	19	
8	0	0	0	0	538	512	190	375	39	19	
9	0	0	0	0	515	511	190	498	39	19	
10	0	0	0	0	535	511	190	367	39	19	
11	0	0	0	0	511	508	190	477	39	19	
12	0	0	0	0	538	512	190	385	39	19	
13	0	0	0	0	517	512	190	486	39	19	
14	0	0	0	0	542	514	190	403	39	19	
15	0	0	0	0	509	510	190	492	39	19	
0	0	0	0	0	540	516	190	381	39	19	
1	0	0	0	0	525	505	190	525	39	19	
2	0	0	0	0	532	511	190	382	39	19	
3	0	0	0	0	509	509	190	473	39	19	
4	0	0	0	0	539	513	190	377	39	19	
5	0	0	0	0	511	509	190	458	39	19	
6	0	0	0	0	534	512	190	391	39	19	
7	0	0	0	0	510	510	190	518	39	19	
8	0	0	0	0	528	510	190	387	39	19	
9	0	0	0	0	508	505	189	490	39	19	
10	0	0	0	0	543	511	190	381	39	19	
11	0	0	0	0	514	510	189	505	39	19	
12	0	0	0	0	532	513	190	365	39	19	
13	0	0	0	0	512	510	189	456	39	19	
14	0	0	0	0	528	510	189	403	39	19	
15	0	0	0	0	518	509	189	511	39	19	
0	0	0	0	0	529	512	189	378	39	19	
1	0	0	0	0	512	512	189	455	39	19	
2	0	0	0	0	534	515	189	374	39	19	
3	0	0	0	0	513	512	189	516	39	19	
4	0	0	0	0	527	514	189	392	39	19	
5	0	0	0	0	511	511	189	472	39	19	
6	0	0	0	0	535	514	189	396	39	19	
7	0	0	0	0	513	510	189	486	39	19	
8	0	0	0	0	538	513	189	378	39	19	
9	0	0	0	0	508	510	189	463	39	19	
10	0	0	0	0	532	513	189	395	39	19	
11	0	0	0	0	514	508	189	455	39	19	
12	0	0	0	0	532	512	189	410	39	19	
13	0	0	0	0	514	508	189	498	39	19	
14	0	0	0	0	536	511	189	408	39	19	
15	0	0	0	0	510	507	189	491	39	19	
0	0	0	0	0	532	513	189	385	39	19	
1	0	0	0	0	523	507	189	470	39	19	
2	0	0	0	0	534	510	189	387	39	19	
3	0	0	0	0	509	510	189	456	39	19	
4	0	0	0	0	529	512	189	390	39	19	
5	0	0	0	0	511	505	188	471	39	19	
6	0	0	0	0	531	513	189	400	39	19	
7	0	0	0	0	505	508	188	483	39	19	
8	0	0	0	0	536	512	189	381	39	19	
9	0	0	0	0	509	508	188	456	39	19	
10	0	0	0	0	531	511	188	412	39	19	
11	0	0	0	0	511	513	188	492	39	19	
12	0	0	0	0	534	511	189	403	39	19	
13	0	0	0	0	507	510	188	509	39	19	
14	0	0	0	0	527	513	188	378	39	19	
15	0	0	0	0	512	509	188	452	39	19	
0	0	0	0	0	529	516	188	375	39	19	
1	0	0	0	0	511	507	188	444	39	19	
2	0	0	0	0	529	515	188	426	39	19	
3	0	0	0	0	512	510	188	500	39	19	
4	0	0	0	0	531	515	188	425	39	19	
5	0	0	0	0	513	511	188	466	39	19	
6	0	0	0	0	535	512	188	408	39	19	
7	0	0	0	0	508	508	188	473	39	19	
8	0	0	0	0	530	513	188	404	39	19	
9	0	0	0	0	512	510	188	476	39	19	
10	0	0	0	0	532	514	188	390	39	19	
11	0	0	0	0	511	507	188	474	39	19	
12	0	0	0	0	535	511	188	377	39	19	
13	0	0	0	0	503	507	188	449	39	19	
14	0	0	0	0	528	513	188	418	39	19	
15	0	0	0	0	516	510	188	479	39	19	
0	0	0	0	0	537	513	188	423	39	19	
1	0	0	0	0	512	505	188	493	39	19	
2	0	0	0	0	523	510	188	387	39	19	
3	0	0	0	0	513	508	188	461	39	19	
4	0	0	0	0	529	512	188	378	39	19	
5	0	0	0	0	515	508	187	454	39	19	
6	0	0	0	0	524	513	188	413	39	19	
7	0	0	0	0	513	510	188	477	39	19	
8	0	0	0	0	531	512	188	389	39	19	
9	0	0	0	0	510	512	187	465	39	19	
10	0	0	0	0	530	512	187	420	39	19	
11	0	0	0	0	515	510	187	489	39	19	
12	0	0	0	0	538	514	187	532	39	19	
13	0	0	0	0	519	507	187	595	39	19	
14	0	0	0	0	535	518	187	573	39	19	
15	0	0	0	0	513	508	187	660	39	19	
0	0	0	0	0	536	513	187	363	39	19	
1	0	0	0	0	509	509	187	558	39	19	
2	0	0	0	0	536	512	187	457	39	19	
3	0	0	0	0	512	510	187	759	39	19	
4	0	0	0	0	541	515	187	443	39	19	
5	0	0	0	0	513	510	187	685	39	19	
6	0	0	0	0	543	519	187	0	39	19	
7	0	0	0	0	514	508	187	224	39	19	
8	0	0	0	0	538	513	187	0	39	19	
9	0	0	0	0	513	508	187	131	39	19	
10	0	0	0	0	538	513	187	0	39	19	
11	0	0	0	0	515	509	187	226	39	19	
12	0	0	0	0	540	514	187	0	39	19	
13	0	0	0	0	511	509	187	117	39	19	
14	0	0	0	0	528	515	187	0	39	19	
15	0	0	0	0	512	509	187	110	39	19	
0	0	0	0	0	523	515	187	0	39	19	
1	0	0	0	0	518	508	187	152	39	19	
2	0	0	0	0	534	517	187	0	39	19	
3	0	0	0	0	505	509	187	121	39	19	
4	0	0	0	0	535	515	187	0	39	19	
5	0	0	0	0	517	509	187	69	39	19	
6	0	0	0	0	532	516	187	0	39	19	
7	0	0	0	0	516	507	186	172	39	19	
8	0	0	0	0	536	517	187	197	39	19	
9	0	0	0	0	508	508	187	305	39	19	
10	0	0	0	0	536	511	186	230	39	19	
11	0	0	0	0	513	507	186	381	39	19	
12	0	0	0	0	539	514	186	242	39	19	
13	0	0	0	0	508	507	186	316	39	19	
14	0	0	0	0	537	513	186	255	39	19	
15	0	0	0	0	512	505	186	229	39	19	
0	0	0	0	0	539	513	187	153	39	19	
1	0	0	0	0	506	509	186	257	39	19	
2	0	0	0	0	530	515	186	222	39	19	
3	0	0	0	0	512	507	186	293	39	19	
4	0	0	0	0	526	512	187	174	39	19	
5	0	0	0	0	508	508	186	269	39	19	
6	0	0	0	0	532	514	186	120	39	19	
7	0	0	0	0	507	509	186	212	39	19	
8	0	0	0	0	534	513	186	163	39	19	
9	0	0	0	0	521	505	186	217	39	19	
10	0	0	0	0	528	515	186	177	39	19	
11	0	0	0	0	510	509	186	209	39	19	
12	0	0	0	0	529	511	186	191	39	19	
13	0	0	0	0	512	505	186	232	39	19	
14	0	0	0	0	533	513	186	276	39	19	
15	0	0	0	0	506	509	186	332	39	19	
0	0	0	0	0	532	516	186	249	39	19	
1	0	0	0	0	510	509	186	299	39	19	
2	0	0	0	0	531	515	186	354	39	19	
3	0	0	0	0	509	513	186	364	39	19	
4	0	0	0	0	535	517	186	409	39	19	
5	0	0	0	0	506	508	186	502	39	19	
6	0	0	0	0	531	518	186	423	39	19	
7	0	0	0	0	514	511	185	429	39	19	
8	0	0	0	0	535	517	186	385	39	19	
9	0	0	0	0	518	510	185	486	39	19	
10	0	0	0	0	541	515	186	261	39	19	
11	0	0	0	0	513	508	185	425	39	19	
12	0	0	0	0	533	516	185	348	39	19	
13	0	0	0	0	511	508	185	406	39	19	
14	0	0	0	0	536	517	185	227	39	19	
15	0	0	0	0	508	508	185	336	39	19	
0	0	0	0	0	534	513	185	0	39	19	
1	0	0	0	0	515	508	185	221	39	19	
2	0	0	0	0	533	516	185	0	39	19	
3	0	0	0	0	514	512	185	88	39	19	
4	0	0	0	0	525	518	185	0	39	19	
5	0	0	0	0	508	509	185	65	39	19	
6	0	0	0	0	532	514	185	0	39	19	
7	0	0	0	0	508	509	185	58	39	19	
8	0	0	0	0	532	513	185	0	39	19	
9	0	0	0	0	509	509	185	85	39	19	
10	0	0	0	0	526	514	185	0	39	19	
11	0	0	0	0	512	508	185	125	39	19	
12	0	0	0	0	529	515	185	0	39	19	
13	0	0	0	0	516	507	185	174	39	19	
14	0	0	0	0	528	509	185	131	39	19	
15	0	0	0	0	513	509	185	227	39	19	
0	0	0	0	0	529	511	185	173	39	19	
1	0	0	0	0	507	509	185	253	39	19	
2	0	0	0	0	529	512	185	241	39	19	
3	0	0	0	0	509	511	185	310	39	19	
4	0	0	0	0	527	513	185	307	39	19	
5	0	0	0	0	508	510	185	364	39	19	
6	0	0	0	0	528	511	185	340	39	19	
7	0	0	0	0	514	508	185	413	39	19	
8	0	0	0	0	530	511	185	353	39	19	
9	0	0	0	0	512	510	185	418	39	19	
10	0	0	0	0	533	515	185	400	39	19	
11	0	0	0	0	516	509	185	440	39	19	
12	0	0	0	0	524	513	185	473	39	19	
13	0	0	0	0	515	512	185	502	39	19	
14	0	0	0	0	535	513	185	466	39	19	
15	0	0	0	0	506	508	185	507	39	19	
0	0	0	0	0	529	512	185	486	39	19	
1	0	0	0	0	511	509	185	502	39	19	
2	0	0	0	0	525	515	185	487	39	19	
3	0	0	0	0	519	509	185	502	39	19	
4	0	0	0	0	535	513	185	467	39	19	
5	0	0	0	0	511	511	185	549	39	19	
6	0	0	0	0	534	514	185	462	39	19	
7	0	0	0	0	511	507	185	545	39	19	
8	0	0	0	0	530	516	185	520	39	19	
9	0	0	0	0	516	507	185	622	39	19	
10	0	0	0	0	537	514	185	534	39	19	
11	0	0	0	0	517	511	185	632	39	19	
12	0	0	0	0	529	514	185	627	39	19	
13	0	0	0	0	515	508	184	670	39	19	
14	0	0	0	0	538	516	185	465	39	19	
15	0	0	0	0	508	507	184	546	39	19	
0	0	0	0	0	531	513	185	384	39	19	
1	0	0	0	0	512	506	184	379	39	19	
2	0	0	0	0	534	514	184	263	39	19	
3	0	0	0	0	509	505	184	321	39	19	
4	0	0	0	0	527	514	184	263	39	19	
5	0	0	0	0	514	509	184	326	39	19	
6	0	0	0	0	531	511	184	285	39	19	
7	0	0	0	0	512	508	184	344	39	19	
8	0	0	0	0	536	515	184	258	39	19	
9	0	0	0	0	515	508	184	344	39	19	
10	0	0	0	0	531	515	184	273	39	19	
11	0	0	0	0	505	508	184	328	39	19	
12	0	0	0	0	525	515	184	324	39	19	
13	0	0	0	0	511	512	184	366	39	19	
14	0	0	0	0	532	515	184	298	39	19	
15	0	0	0	0	513	508	184	344	39	19	
0	0	0	0	0	530	515	184	352	39	19	
1	0	0	0	0	513	507	184	381	39	19	
2	0	0	0	0	530	515	184	354	39	19	
3	0	0	0	0	510	508	184	379	39	19	
4	0	0	0	0	527	516	184	362	39	19	
5	0	0	0	0	518	510	184	388	39	19	
6	0	0	0	0	523	514	184	420	39	19	
7	0	0	0	0	513	507	184	468	39	19	
8	0	0	0	0	529	515	184	382	39	19	
9	0	0	0	0	513	508	184	409	39	19	
10	0	0	0	0	526	513	184	425	39	19	
11	0	0	0	0	512	507	184	452	39	19	
12	0	0	0	0	528	515	184	472	39	19	
13	0	0	0	0	512	506	184	466	39	19	
14	0	0	0	0	537	512	184	406	39	19	
15	0	0	0	0	516	508	184	441	39	19	
0	0	0	0	0	530	516	184	422	39	19	
1	0	0	0	0	512	509	184	430	39	19	
2	0	0	0	0	529	511	184	401	39	19	
3	0	0	0	0	512	508	184	407	39	19	
4	0	0	0	0	531	512	184	524	39	19	
5	0	0	0	0	508	507	184	524	39	19	
6	0	0	0	0	539	513	184	368	39	19	
7	0	0	0	0	511	508	184	380	39	19	
8	0	0	0	0	530	512	184	310	39	19	
9	0	0	0	0	509	508	184	374	39	19	
10	0	0	0	0	535	514	184	431	39	19	
11	0	0	0	0	511	509	184	474	39	19	
12	0	0	0	0	539	514	184	383	39	19	
13	0	0	0	0	510	511	184	355	39	19	
14	0	0	0	0	535	514	184	497	39	19	
15	0	0	0	0	514	507	184	491	39	19	
0	0	0	0	0	531	512	184	378	39	19	
1	0	0	0	0	511	506	184	332	39	19	
2	0	0	0	0	540	516	184	323	39	19	
3	0	0	0	0	508	507	184	348	39	19	
4	0	0	0	0	537	515	184	296	39	19	
5	0	0	0	0	515	508	184	329	39	19	
6	0	0	0	0	532	515	184	280	39	19	
7	0	0	0	0	505	509	184	261	39	19	
8	0	0	0	0	532	515	184	223	39	19	
9	0	0	0	0	513	509	184	290	39	19	
10	0	0	0	0	537	513	184	368	39	19	
11	0	0	0	0	509	508	184	305	39	19	
12	0	0	0	0	540	515	184	365	39	19	
13	0	0	0	0	508	510	184	316	39	19	
14	0	0	0	0	532	515	184	359	39	19	
15	0	0	0	0	505	508	184	250	39	19	
0	0	0	0	0	529	515	184	0	39	19	
1	0	0	0	0	505	510	184	178	39	19	
2	0	0	0	0	534	515	184	349	39	19	
3	0	0	0	0	513	509	183	288	39	19	
4	0	0	0	0	537	517	184	278	39	19	
5	0	0	0	0	511	507	183	273	39	19	
6	0	0	0	0	530	514	183	349	39	19	
7	0	0	0	0	512	510	183	228	39	19	
8	0	0	0	0	534	518	184	314	39	19	
9	0	0	0	0	515	507	183	198	39	19	
10	0	0	0	0	525	517	183	254	39	19	
11	0	0	0	0	515	508	183	256	39	19	
12	0	0	0	0	532	516	183	256	39	19	
13	0	0	0	0	513	511	183	235	39	19	
14	0	0	0	0	530	514	183	364	39	19	
15	0	0	0	0	511	507	183	278	39	19	
0	0	0	0	0	538	515	184	152	39	19	
1	0	0	0	0	511	509	183	179	39	19	
2	0	0	0	0	528	512	183	200	39	19	
3	0	0	0	0	522	507	183	188	39	19	
4	0	0	0	0	523	513	183	200	39	19	
5	0	0	0	0	513	512	183	217	39	19	
6	0	0	0	0	530	513	183	254	39	19	
7	0	0	0	0	509	508	183	254	39	19	
8	0	0	0	0	531	514	183	297	39	19	
9	0	0	0	0	513	510	183	316	39	19	
10	0	0	0	0	526	516	183	342	39	19	
11	0	0	0	0	508	508	183	325	39	19	
12	0	0	0	0	525	514	183	381	39	19	
13	0	0	0	0	507	509	183	364	39	19	
14	0	0	0	0	531	515	183	409	39	19	
15	0	0	0	0	512	511	183	396	39	19	
0	0	0	0	0	528	512	183	464	39	19	
1	0	0	0	0	507	509	183	445	39	19	
2	0	0	0	0	527	515	183	447	39	19	
3	0	0	0	0	509	508	183	420	39	19	
4	0	0	0	0	527	514	183	477	39	19	
5	0	0	0	0	510	505	183	469	39	19	
6	0	0	0	0	527	514	183	472	39	19	
7	0	0	0	0	508	507	183	456	39	19	
8	0	0	0	0	527	512	183	473	39	19	
9	0	0	0	0	507	506	183	459	39	19	
10	0	0	0	0	524	513	183	480	39	19	
11	0	0	0	0	517	508	183	486	39	19	
12	0	0	0	0	534	513	183	471	39	19	
13	0	0	0	0	511	507	183	486	39	19	
14	0	0	0	0	529	513	183	476	39	19	
15	0	0	0	0	510	507	183	461	39	19	
0	0	0	0	0	530	513	183	486	39	19	
1	0	0	0	0	512	512	183	473	39	19	
2	0	0	0	0	521	516	183	483	39	19	
3	0	0	0	0	507	509	183	449	39	19	
4	0	0	0	0	529	511	183	498	39	19	
5	0	0	0	0	512	512	183	479	39	19	
6	0	0	0	0	525	514	183	504	39	19	
7	0	0	0	0	511	512	183	489	39	19	
8	0	0	0	0	527	512	183	495	39	19	
9	0	0	0	0	513	511	183	486	39	19	
10	0	0	0	0	524	515	183	491	39	19	
11	0	0	0	0	510	509	183	500	39	19	
12	0	0	0	0	530	516	184	542	39	19	
13	0	0	0	0	512	510	183	508	39	19	
14	0	0	0	0	529	513	183	524	39	19	
15	0	0	0	0	514	507	183	506	39	19	
0	0	0	0	0	520	515	184	509	39	19	
1	0	0	0	0	516	508	183	509	39	19	
2	0	0	0	0	533	515	183	507	39	19	
3	0	0	0	0	515	508	184	493	39	19	
4	0	0	0	0	532	515	184	525	39	19	
5	0	0	0	0	515	510	184	502	39	19	
6	0	0	0	0	530	513	184	562	39	19	
7	0	0	0	0	509	507	184	506	39	19	
8	0	0	0	0	531	514	184	541	39	19	
9	0	0	0	0	512	510	184	489	39	19	
10	0	0	0	0	522	515	184	522	39	19	
11	0	0	0	0	518	507	184	502	39	19	
12	0	0	0	0	523	512	184	560	39	19	
13	0	0	0	0	511	507	184	483	39	19	
14	0	0	0	0	530	513	184	490	39	19	
15	0	0	0	0	508	508	184	477	39	19	
0	0	0	0	0	521	513	184	506	39	19	
1	0	0	0	0	515	507	184	488	39	19	
2	0	0	0	0	523	515	184	477	39	19	
3	0	0	0	0	515	509	184	471	39	19	
4	0	0	0	0	519	513	184	474	39	19	
5	0	0	0	0	512	508	184	471	39	19	
6	0	0	0	0	535	514	184	485	39	19	
7	0	0	0	0	511	508	184	478	39	19	
8	0	0	0	0	517	513	184	477	39	19	
9	0	0	0	0	504	511	184	481	39	19	
10	0	0	0	0	524	510	184	534	39	19	
11	0	0	0	0	509	509	184	482	39	19	
12	0	0	0	0	530	514	185	491	39	19	
13	0	0	0	0	504	507	185	477	39	19	
14	0	0	0	0	520	511	185	508	39	19	
15	0	0	0	0	516	506	185	503	39	19	
0	0	0	0	0	524	512	185	523	39	19	
1	0	0	0	0	509	508	185	498	39	19	
2	0	0	0	0	522	513	185	530	39	19	
3	0	0	0	0	512	507	185	479	39	19	
4	0	0	0	0	528	513	185	507	39	19	
5	0	0	0	0	516	511	185	502	39	19	
6	0	0	0	0	519	513	185	504	39	19	
7	0	0	0	0	519	512	185	500	39	19	
8	0	0	0	0	531	514	185	499	39	19	
9	0	0	0	0	513	507	185	497	39	19	
10	0	0	0	0	526	513	185	510	39	19	
11	0	0	0	0	518	509	185	489	39	19	
12	0	0	0	0	521	514	185	500	39	19	
13	0	0	0	0	516	507	185	492	39	19	
14	0	0	0	0	522	513	185	567	39	19	
15	0	0	0	0	510	508	185	506	39	19	
0	0	0	0	0	520	513	185	530	39	19	
1	0	0	0	0	514	509	185	506	39	19	
2	0	0	0	0	524	510	185	505	39	19	
3	0	0	0	0	511	507	185	473	39	19	
4	0	0	0	0	525	510	186	518	39	19	
5	0	0	0	0	513	507	185	481	39	19	
6	0	0	0	0	524	515	185	510	39	19	
7	0	0	0	0	510	508	186	487	39	19	
8	0	0	0	0	526	515	186	533	39	19	
9	0	0	0	0	512	510	186	475	39	19	
10	0	0	0	0	527	512	185	487	39	19	
11	0	0	0	0	507	508	186	465	39	19	
12	0	0	0	0	526	515	186	570	39	19	
13	0	0	0	0	515	510	186	490	39	19	
14	0	0	0	0	527	512	186	515	39	19	
15	0	0	0	0	515	511	186	477	39	19	
0	0	0	0	0	522	516	186	622	39	19	
1	0	0	0	0	518	513	186	513	39	19	
2	0	0	0	0	525	513	186	511	39	19	
3	0	0	0	0	511	508	186	474	39	19	
4	0	0	0	0	525	513	186	545	39	19	
5	0	0	0	0	519	507	186	493	39	19	
6	0	0	0	0	520	515	186	538	39	19	
7	0	0	0	0	512	510	186	477	39	19	
8	0	0	0	0	533	514	186	590	39	19	
9	0	0	0	0	515	510	186	512	39	19	
10	0	0	0	0	529	515	186	671	39	19	
11	0	0	0	0	512	507	186	527	39	19	
12	0	0	0	0	533	516	186	811	39	19	
13	0	0	0	0	515	508	186	574	39	19	
14	0	0	0	0	533	515	186	888	39	19	
15	0	0	0	0	513	508	186	608	39	19	
0	0	0	0	0	532	516	186	643	39	19	
1	0	0	0	0	518	508	186	428	39	19	
2	0	0	0	0	532	515	186	686	39	19	
3	0	0	0	0	516	506	186	401	39	19	
4	0	0	0	0	530	517	186	799	39	19	
5	0	0	0	0	514	508	186	407	39	19	
6	0	0	0	0	527	516	186	415	39	19	
7	0	0	0	0	511	509	186	243	39	19	
8	0	0	0	0	535	515	186	437	39	19	
9	0	0	0	0	511	507	186	208	39	19	
10	0	0	0	0	521	513	186	312	39	19	
11	0	0	0	0	511	505	186	147	39	19	
12	0	0	0	0	523	515	186	273	39	19	
13	0	0	0	0	513	509	186	133	39	19	
14	0	0	0	0	524	513	186	222	39	19	
15	0	0	0	0	512	508	186	154	39	19	
0	0	0	0	0	527	514	186	298	39	19	
1	0	0	0	0	508	508	186	181	39	19	
2	0	0	0	0	525	515	186	274	39	19	
3	0	0	0	0	508	510	186	194	39	19	
4	0	0	0	0	524	512	186	280	39	19	
5	0	0	0	0	513	507	186	225	39	19	
6	0	0	0	0	527	513	186	308	39	19	
7	0	0	0	0	512	509	186	251	39	19	
8	0	0	0	0	528	512	186	398	39	19	
9	0	0	0	0	511	505	186	321	39	19	
10	0	0	0	0	526	513	186	381	39	19	
11	0	0	0	0	516	508	186	328	39	19	
12	0	0	0	0	529	515	186	518	39	19	
13	0	0	0	0	514	509	186	400	39	19	
14	0	0	0	0	535	514	186	405	39	19	
15	0	0	0	0	512	507	186	353	39	19	
0	0	0	0	0	526	515	186	625	39	19	
1	0	0	0	0	509	510	186	466	39	19	
2	0	0	0	0	531	513	186	482	39	19	
3	0	0	0	0	506	507	185	394	39	19	
4	0	0	0	0	525	512	186	559	39	19	
5	0	0	0	0	509	511	185	404	39	19	
6	0	0	0	0	526	515	185	348	39	19	
7	0	0	0	0	514	507	185	330	39	19	
8	0	0	0	0	525	516	186	591	39	19	
9	0	0	0	0	504	510	185	423	39	19	
10	0	0	0	0	525	515	185	654	39	19	
11	0	0	0	0	513	507	185	451	39	19	
12	0	0	0	0	519	517	185	707	39	19	
13	0	0	0	0	521	509	185	498	39	19	
14	0	0	0	0	526	513	185	691	39	19	
15	0	0	0	0	515	510	185	424	39	19	
0	0	0	0	0	527	515	185	576	39	19	
1	0	0	0	0	516	508	185	386	39	19	
2	0	0	0	0	526	512	185	475	39	19	
3	0	0	0	0	508	508	185	324	39	19	
4	0	0	0	0	527	514	185	687	39	19	
5	0	0	0	0	510	511	185	371	39	19	
6	0	0	0	0	527	515	185	588	39	19	
7	0	0	0	0	512	508	185	351	39	19	
8	0	0	0	0	524	515	185	652	39	20	
9	0	0	0	0	515	508	185	399	39	20	
10	0	0	0	0	523	515	185	601	39	20	
11	0	0	0	0	504	510	185	351	39	20	
12	0	0	0	0	524	513	185	550	39	20	
13	0	0	0	0	508	506	185	299	39	20	
14	0	0	0	0	527	518	185	448	39	20	
15	0	0	0	0	520	512	185	265	39	20	
0	0	0	0	0	523	512	185	375	39	20	
1	0	0	0	0	517	508	185	238	39	20	
2	0	0	0	0	522	510	185	361	39	20	
3	0	0	0	0	504	505	185	239	39	20	
4	0	0	0	0	526	514	185	376	39	20	
5	0	0	0	0	513	509	185	274	39	20	
6	0	0	0	0	528	515	185	363	39	20	
7	0	0	0	0	511	511	185	314	39	20	
8	0	0	0	0	527	518	185	499	39	20	
9	0	0	0	0	514	509	185	361	39	20	
10	0	0	0	0	520	514	185	406	39	20	
11	0	0	0	0	513	511	185	353	39	20	
12	0	0	0	0	515	513	185	570	39	20	
13	0	0	0	0	509	508	185	418	39	20	
14	0	0	0	0	521	512	184	457	39	20	
15	0	0	0	0	508	511	185	391	39	20	
0	0	0	0	0	526	514	185	496	39	20	
1	0	0	0	0	512	508	185	434	39	20	
2	0	0	0	0	521	512	185	485	39	20	
3	0	0	0	0	512	508	185	415	39	20	
4	0	0	0	0	523	513	185	549	39	20	
5	0	0	0	0	509	509	185	444	39	20	
6	0	0	0	0	522	513	185	530	39	20	
7	0	0	0	0	517	508	185	465	39	20	
8	0	0	0	0	521	511	185	513	39	20	
9	0	0	0	0	516	508	185	458	39	19	
10	0	0	0	0	516	513	185	576	39	19	
11	0	0	0	0	508	508	185	498	39	19	
12	0	0	0	0	515	515	185	537	39	19	
13	0	0	0	0	512	508	185	477	39	19	
14	0	0	0	0	514	514	185	519	39	19	
15	0	0	0	0	508	509	185	481	39	19	
0	0	0	0	0	517	513	185	587	39	19	
1	0	0	0	0	511	508	185	484	39	19	
2	0	0	0	0	520	514	185	570	39	19	
3	0	0	0	0	508	509	185	491	39	19	
4	0	0	0	0	514	516	185	571	39	19	
5	0	0	0	0	512	509	185	510	39	19	
6	0	0	0	0	514	515	185	567	39	19	
7	0	0	0	0	509	506	186	507	39	19	
8	0	0	0	0	517	513	186	571	39	19	
9	0	0	0	0	513	510	186	500	39	19	
10	0	0	0	0	523	517	186	622	39	19	
11	0	0	0	0	507	510	186	519	39	19	
12	0	0	0	0	512	513	186	559	39	19	
13	0	0	0	0	510	505	186	500	39	19	
14	0	0	0	0	525	515	187	591	39	19	
15	0	0	0	0	507	511	187	501	39	19	
0	0	0	0	0	521	512	187	517	39	19	
1	0	0	0	0	512	508	187	480	39	19	
2	0	0	0	0	520	513	187	631	39	19	
3	0	0	0	0	509	508	187	510	39	19	
4	0	0	0	0	521	513	188	582	39	19	
5	0	0	0	0	513	510	188	506	39	19	
6	0	0	0	0	527	515	188	621	39	19	
7	0	0	0	0	515	505	188	504	39	19	
8	0	0	0	0	516	515	188	647	39	19	
9	0	0	0	0	506	508	188	515	39	19	
10	0	0	0	0	522	513	188	696	39	19	
11	0	0	0	0	502	508	188	505	39	19	
12	0	0	0	0	518	518	189	641	39	19	
13	0	0	0	0	508	508	189	484	39	19	
14	0	0	0	0	524	515	189	684	39	19	
15	0	0	0	0	515	508	189	472	39	19	
0	0	0	0	0	515	512	190	830	39	19	
1	0	0	0	0	508	509	190	521	39	19	
2	0	0	0	0	520	515	190	663	39	19	
3	0	0	0	0	511	509	190	425	39	19	
4	0	0	0	0	520	516	190	634	39	19	
5	0	0	0	0	509	509	190	414	39	19	
6	0	0	0	0	519	514	191	494	39	19	
7	0	0	0	0	507	508	191	373	39	19	
8	0	0	0	0	521	513	191	630	39	19	
9	0	0	0	0	512	508	191	393	39	19	
10	0	0	0	0	515	511	191	510	39	19	
11	0	0	0	0	510	505	192	361	39	19	
12	0	0	0	0	513	512	192	450	39	19	
13	0	0	0	0	513	508	192	377	39	19	
14	0	0	0	0	515	515	192	467	39	19	
15	0	0	0	0	505	510	192	399	39	19	
0	0	0	0	0	515	516	193	487	39	19	
1	0	0	0	0	514	510	193	417	39	19	
2	0	0	0	0	513	513	193	504	39	19	
3	0	0	0	0	510	505	193	428	39	19	
4	0	0	0	0	513	511	193	497	39	19	
5	0	0	0	0	515	508	193	435	39	19	
6	0	0	0	0	522	513	193	493	39	19	
7	0	0	0	0	509	507	194	443	39	19	
8	0	0	0	0	514	515	194	522	39	19	
9	0	0	0	0	511	510	194	472	39	19	
10	0	0	0	0	513	515	194	531	39	19	
11	0	0	0	0	511	510	194	468	39	19	
12	0	0	0	0	512	516	195	547	39	19	
13	0	0	0	0	504	511	195	456	39	19	
14	0	0	0	0	513	511	195	544	39	19	
15	0	0	0	0	510	509	195	486	39	19	
0	0	0	0	0	507	512	195	560	39	19	
1	0	0	0	0	504	509	195	480	39	19	
2	0	0	0	0	509	513	195	548	39	19	
3	0	0	0	0	513	509	195	478	39	19	
4	0	0	0	0	515	513	195	570	39	19	
5	0	0	0	0	507	507	195	485	39	19	
6	0	0	0	0	512	513	195	545	39	19	
7	0	0	0	0	512	507	196	496	39	20	
8	0	0	0	0	509	514	196	602	39	19	
9	0	0	0	0	513	511	196	498	39	19	
10	0	0	0	0	513	511	196	591	39	19	
11	0	0	0	0	510	510	196	497	39	20	
12	0	0	0	0	505	513	196	591	39	19	
13	0	0	0	0	508	508	196	507	39	20	
14	0	0	0	0	511	515	196	579	39	20	
15	0	0	0	0	508	508	196	497	39	20	
0	0	0	0	0	513	511	197	586	39	20	
1	0	0	0	0	516	505	197	486	39	20	
2	0	0	0	0	515	510	197	616	39	20	
3	0	0	0	0	500	509	197	498	39	20	
4	0	0	0	0	512	514	197	603	39	20	
5	0	0	0	0	505	509	197	493	39	20	
6	0	0	0	0	514	515	197	584	39	20	
7	0	0	0	0	509	512	197	492	39	20	
8	0	0	0	0	505	512	197	614	39	20	
9	0	0	0	0	516	507	197	495	39	20	
10	0	0	0	0	506	511	197	614	39	20	
11	0	0	0	0	504	508	197	503	39	20	
12	0	0	0	0	502	513	197	589	39	20	
13	0	0	0	0	510	507	197	483	39	20	
14	0	0	0	0	510	512	197	644	39	20	
15	0	0	0	0	505	509	197	500	39	20	
0	0	0	0	0	505	507	197	569	39	20	
1	0	0	0	0	505	509	198	475	39	20	
2	0	0	0	0	505	513	197	583	39	20	
3	0	0	0	0	509	510	198	480	39	20	
4	0	0	0	0	510	517	198	630	39	20	
5	0	0	0	0	503	510	198	495	39	20	
6	0	0	0	0	514	515	198	568	39	20	
7	0	0	0	0	511	508	198	476	39	20	
8	0	0	0	0	513	514	198	588	39	20	
9	0	0	0	0	513	509	198	489	39	20	
10	0	0	0	0	509	513	198	616	39	20	
11	0	0	0	0	500	510	198	482	39	20	
12	0	0	0	0	504	513	198	645	39	20	
13	0	0	0	0	506	507	198	480	39	20	
14	0	0	0	0	506	512	198	636	39	20	
15	0	0	0	0	510	510	198	476	39	20	
0	0	0	0	0	508	513	198	580	39	20	
1	0	0	0	0	511	511	198	464	39	20	
2	0	0	0	0	515	513	197	598	39	20	
3	0	0	0	0	502	508	198	474	39	20	
4	0	0	0	0	512	515	198	572	39	20	
5	0	0	0	0	504	508	198	478	39	20	
6	0	0	0	0	511	511	197	621	39	20	
7	0	0	0	0	512	508	198	480	39	20	
8	0	0	0	0	510	509	198	599	39	20	
9	0	0	0	0	513	507	198	482	39	20	
10	0	0	0	0	506	513	198	586	39	20	
11	0	0	0	0	508	511	198	486	39	20	
12	0	0	0	0	513	513	198	606	39	20	
13	0	0	0	0	504	508	198	470	39	20	
14	0	0	0	0	505	511	198	608	39	20	
15	0	0	0	0	507	508	198	476	39	20	
0	0	0	0	0	516	516	198	616	39	20	
1	0	0	0	0	499	510	198	479	39	20	
2	0	0	0	0	507	513	198	575	39	20	
3	0	0	0	0	503	507	198	465	39	20	
4	0	0	0	0	503	513	198	597	39	20	
5	0	0	0	0	508	508	198	487	39	20	
6	0	0	0	0	507	516	198	610	39	20	
7	0	0	0	0	504	508	198	476	39	20	
8	0	0	0	0	502	513	198	630	39	20	
9	0	0	0	0	513	511	198	487	39	20	
10	0	0	0	0	505	514	197	632	39	20	
11	0	0	0	0	510	513	197	475	39	20	
12	0	0	0	0	510	514	197	599	39	20	
13	0	0	0	0	513	508	197	472	39	20	
14	0	0	0	0	506	511	197	647	39	20	
15	0	0	0	0	508	508	196	477	39	20	
0	0	0	0	0	504	511	196	587	39	20	
1	0	0	0	0	508	508	196	470	39	20	
2	0	0	0	0	505	514	196	562	39	20	
3	0	0	0	0	510	507	195	454	39	20	
4	0	0	0	0	511	515	195	543	39	20	
5	0	0	0	0	507	510	195	461	39	20	
6	0	0	0	0	500	514	195	606	39	20	
7	0	0	0	0	508	505	194	487	39	20	
8	0	0	0	0	502	512	194	592	39	20	
9	0	0	0	0	505	510	193	469	39	20	
10	0	0	0	0	511	511	193	711	39	20	
11	0	0	0	0	506	505	193	493	39	20	
12	0	0	0	0	499	514	192	681	39	20	
13	0	0	0	0	505	508	192	475	39	20	
14	0	0	0	0	506	513	192	608	39	20	
15	0	0	0	0	507	511	191	476	39	20	
0	0	0	0	0	512	512	191	566	39	20	
1	0	0	0	0	504	508	191	456	39	20	
2	0	0	0	0	502	513	190	589	39	20	
3	0	0	0	0	500	506	190	468	39	19	
4	0	0	0	0	502	514	190	623	39	19	
5	0	0	0	0	498	507	189	471	39	19	
6	0	0	0	0	505	511	189	591	39	19	
7	0	0	0	0	508	507	189	460	39	19	
8	0	0	0	0	505	515	188	675	39	19	
9	0	0	0	0	505	510	188	482	39	19	
10	0	0	0	0	504	512	188	634	39	19	
11	0	0	0	0	509	510	188	469	39	19	
12	0	0	0	0	505	515	188	705	39	19	
13	0	0	0	0	504	509	187	468	39	19	
14	0	0	0	0	506	514	187	725	39	19	
15	0	0	0	0	505	511	187	472	39	19	
0	0	0	0	0	500	513	187	709	39	19	
1	0	0	0	0	505	510	187	466	39	19	
2	0	0	0	0	506	514	186	947	39	19	
3	0	0	0	0	503	507	186	485	39	20	
4	0	0	0	0	508	520	186	1018	39	19	
5	0	0	0	0	511	507	185	580	39	19	
6	0	0	0	0	504	519	185	1018	39	19	
7	0	0	0	0	507	508	185	1018	39	19	
8	0	0	0	0	526	517	185	1018	39	19	
9	0	0	0	0	495	510	184	1018	39	19	
10	0	0	0	0	522	518	185	1018	39	19	
11	0	0	0	0	503	509	184	1018	39	19	
12	0	0	0	0	523	522	184	1018	39	19	
13	0	0	0	0	497	511	183	1018	39	19	
14	0	0	0	0	531	519	184	1009	39	19	
15	0	0	0	0	498	509	183	1018	39	19	
0	0	0	0	0	522	521	183	0	39	19	
1	0	0	0	0	502	509	182	0	39	19	
2	0	0	0	0	529	523	183	0	39	19	
3	0	0	0	0	494	508	182	0	39	19	
4	0	0	0	0	522	522	182	0	39	19	
5	0	0	0	0	496	509	181	0	39	19	
6	0	0	0	0	520	521	182	0	39	19	
7	0	0	0	0	500	505	181	0	39	19	
8	0	0	0	0	522	518	182	0	39	19	
9	0	0	0	0	495	508	181	0	39	19	
10	0	0	0	0	520	518	181	0	39	19	
11	0	0	0	0	497	508	180	0	39	19	
12	0	0	0	0	523	519	181	0	39	19	
13	0	0	0	0	500	505	180	0	39	19	
14	0	0	0	0	520	520	180	0	39	19	
15	0	0	0	0	502	506	180	0	39	19	
0	0	0	0	0	518	519	180	0	39	19	
1	0	0	0	0	502	507	179	0	39	19	
2	0	0	0	0	520	519	179	0	39	19	
3	0	0	0	0	509	507	178	0	39	19	
4	0	0	0	0	514	520	178	0	39	19	
5	0	0	0	0	497	506	176	0	39	19	
6	0	0	0	0	522	518	176	0	39	19	
7	0	0	0	0	496	508	175	0	39	19	
8	0	0	0	0	520	520	176	0	39	19	
9	0	0	0	0	496	505	175	0	39	19	
10	0	0	0	0	531	520	175	0	39	19	
11	0	0	0	0	495	506	175	0	39	19	
12	0	0	0	0	520	521	175	0	39	19	
13	0	0	0	0	496	512	175	0	39	19	
14	0	0	0	0	525	520	175	0	39	19	
15	0	0	0	0	504	508	174	0	39	19	
0	0	0	0	0	524	521	175	0	39	19	
1	0	0	0	0	503	509	175	0	39	19	
2	0	0	0	0	520	518	175	0	39	19	
3	0	0	0	0	502	506	175	0	39	19	
4	0	0	0	0	516	518	175	0	39	19	
5	0	0	0	0	501	508	175	0	39	19	
6	0	0	0	0	514	521	175	0	39	19	
7	0	0	0	0	500	507	175	0	39	19	
8	0	0	0	0	516	520	176	0	39	19	
9	0	0	0	0	499	505	174	0	39	19	
10	0	0	0	0	522	520	174	0	39	19	
11	0	0	0	0	499	508	172	0	39	19	
12	0	0	0	0	522	521	172	0	39	19	
13	0	0	0	0	512	504	171	0	39	19	
14	0	0	0	0	514	518	171	0	39	19	
15	0	0	0	0	507	511	170	0	39	19	
0	0	0	0	0	516	521	170	0	39	19	
1	0	0	0	0	501	505	170	0	39	19	
2	0	0	0	0	519	520	171	0	39	19	
3	0	0	0	0	501	509	170	0	39	19	
4	0	0	0	0	512	518	171	0	39	19	
5	0	0	0	0	501	509	171	0	39	19	
6	0	0	0	0	512	518	171	0	39	19	
7	0	0	0	0	504	505	171	0	39	19	
8	0	0	0	0	524	521	172	0	39	19	
9	0	0	0	0	501	504	171	0	39	19	
10	0	0	0	0	512	520	172	0	39	19	
11	0	0	0	0	494	507	171	0	39	19	
12	0	0	0	0	516	521	172	0	39	19	
13	0	0	0	0	498	507	171	0	39	19	
14	0	0	0	0	518	517	172	0	39	19	
15	0	0	0	0	497	508	171	0	39	19	
0	0	0	0	0	517	519	171	0	39	19	
1	0	0	0	0	500	509	169	0	39	19	
2	0	0	0	0	514	520	169	0	39	19	
3	0	0	0	0	500	510	169	0	39	19	
4	0	0	0	0	513	520	169	0	39	19	
5	0	0	0	0	499	508	168	0	39	19	
6	0	0	0	0	521	521	168	60	39	19	
7	0	0	0	0	493	507	168	0	39	19	
8	0	0	0	0	518	518	169	0	39	19	
9	0	0	0	0	496	507	168	0	39	19	
10	0	0	0	0	514	519	169	0	39	19	
11	0	0	0	0	499	507	168	0	39	19	
12	0	0	0	0	516	518	169	0	39	19	
13	0	0	0	0	502	507	169	0	39	19	
14	0	0	0	0	516	520	169	0	39	19	
15	0	0	0	0	494	507	169	0	39	19	
0	0	0	0	0	510	518	170	0	39	19	
1	0	0	0	0	496	509	169	0	39	19	
2	0	0	0	0	518	522	170	0	39	19	
3	0	0	0	0	498	508	169	0	39	19	
4	0	0	0	0	515	522	170	488	39	19	
5	0	0	0	0	499	507	169	0	39	19	
6	0	0	0	0	516	517	170	0	39	19	
7	0	0	0	0	502	506	170	0	39	19	
8	0	0	0	0	515	520	171	0	39	19	
9	0	0	0	0	497	503	170	0	39	19	
10	0	0	0	0	511	518	171	0	39	19	
11	0	0	0	0	495	507	170	0	39	19	
12	0	0	0	0	511	519	171	0	39	19	
13	0	0	0	0	498	509	171	0	39	19	
14	0	0	0	0	514	520	172	0	39	19	
15	0	0	0	0	503	508	172	0	39	19	
0	0	0	0	0	512	518	173	0	39	19	
1	0	0	0	0	500	506	172	0	39	19	
2	0	0	0	0	518	520	173	0	39	19	
3	0	0	0	0	503	509	173	0	39	19	
4	0	0	0	0	512	520	174	351	39	19	
5	0	0	0	0	497	508	174	0	39	19	
6	0	0	0	0	511	519	175	0	39	19	
7	0	0	0	0	491	510	174	0	39	19	
8	0	0	0	0	506	520	175	0	39	19	
9	0	0	0	0	502	507	175	0	39	19	
10	0	0	0	0	514	516	176	0	39	19	
11	0	0	0	0	497	505	176	0	39	19	
12	0	0	0	0	508	524	176	0	39	19	
13	0	0	0	0	495	509	176	0	39	19	
14	0	0	0	0	509	521	177	0	39	19	
15	0	0	0	0	492	507	177	0	39	19	
0	0	0	0	0	513	519	178	0	39	19	
1	0	0	0	0	492	506	178	0	39	19	
2	0	0	0	0	507	518	179	0	39	19	
3	0	0	0	0	498	507	179	0	39	19	
4	0	0	0	0	505	519	180	556	39	19	
5	0	0	0	0	495	505	179	0	39	19	
6	0	0	0	0	511	521	180	738	39	19	
7	0	0	0	0	498	504	180	336	39	19	
8	0	0	0	0	517	520	181	664	39	19	
9	0	0	0	0	494	507	181	489	39	20	
10	0	0	0	0	502	520	182	0	39	19	
11	0	0	0	0	502	507	182	0	39	19	
12	0	0	0	0	508	519	182	0	39	20	
13	0	0	0	0	499	507	182	0	39	20	
14	0	0	0	0	512	522	183	0	39	20	
15	0	0	0	0	493	505	182	0	39	20	
0	0	0	0	0	505	519	183	0	39	20	
1	0	0	0	0	494	509	183	0	39	20	
2	0	0	0	0	514	521	184	0	39	20	
3	0	0	0	0	496	504	183	0	39	20	
4	0	0	0	0	508	521	184	0	39	20	
5	0	0	0	0	489	507	184	0	39	20	
6	0	0	0	0	510	519	184	0	39	20	
7	0	0	0	0	494	509	184	0	39	20	
8	0	0	0	0	510	519	185	0	39	20	
9	0	0	0	0	494	507	184	0	39	20	
10	0	0	0	0	505	518	185	0	39	20	
11	0	0	0	0	495	505	185	0	39	20	
12	0	0	0	0	505	521	186	0	39	20	
13	0	0	0	0	494	508	185	0	39	20	
14	0	0	0	0	506	522	187	0	39	20	
15	0	0	0	0	493	509	186	0	39	20	
0	0	0	0	0	508	521	188	0	39	20	
1	0	0	0	0	501	506	188	0	39	20	
2	0	0	0	0	515	520	189	0	39	20	
3	0	0	0	0	495	509	189	0	39	20	
4	0	0	0	0	507	521	191	0	39	20	
5	0	0	0	0	492	509	190	0	39	20	
6	0	0	0	0	509	520	191	0	39	20	
7	0	0	0	0	496	504	191	0	39	20	
8	0	0	0	0	519	520	192	0	39	20	
9	0	0	0	0	488	507	192	0	39	20	
10	0	0	0	0	511	521	193	0	39	20	
11	0	0	0	0	500	507	193	0	39	20	
12	0	0	0	0	509	516	194	0	39	20	
13	0	0	0	0	495	507	193	0	39	20	
14	0	0	0	0	512	522	194	0	39	20	
15	0	0	0	0	493	510	194	0	39	20	
0	0	0	0	0	515	517	195	0	39	20	
1	0	0	0	0	488	509	194	0	39	20	
2	0	0	0	0	506	521	195	0	39	20	
3	0	0	0	0	494	507	195	0	39	20	
4	0	0	0	0	501	520	196	0	39	20	
5	0	0	0	0	484	509	195	0	39	20	
6	0	0	0	0	505	523	196	0	39	20	
7	0	0	0	0	489	510	195	0	39	20	
8	0	0	0	0	505	522	196	0	39	20	
9	0	0	0	0	494	510	196	0	39	20	
10	0	0	0	0	510	523	196	0	39	20	
11	0	0	0	0	497	508	196	0	39	20	
12	0	0	0	0	511	521	197	0	39	20	
13	0	0	0	0	491	508	196	0	39	20	
14	0	0	0	0	511	520	197	452	39	20	
15	0	0	0	0	492	506	196	0	39	20	
0	0	0	0	0	512	521	198	0	39	20	
1	0	0	0	0	488	507	197	0	39	20	
2	0	0	0	0	516	520	198	0	39	20	
3	0	0	0	0	491	507	197	0	39	20	
4	0	0	0	0	504	519	198	0	39	20	
5	0	0	0	0	491	504	197	0	39	20	
6	0	0	0	0	511	520	198	0	39	20	
7	0	0	0	0	493	508	197	0	39	20	
8	0	0	0	0	501	524	198	0	39	20	
9	0	0	0	0	494	508	197	0	39	20	
10	0	0	0	0	499	520	197	0	39	20	
11	0	0	0	0	494	507	197	0	39	20	
12	0	0	0	0	511	518	198	0	39	20	
13	0	0	0	0	492	508	197	0	39	20	
14	0	0	0	0	511	519	198	779	39	20	
15	0	0	0	0	492	508	197	0	39	20	
0	0	0	0	0	512	519	198	0	39	20	
1	0	0	0	0	500	505	197	0	39	20	
2	0	0	0	0	511	521	198	0	39	20	
3	0	0	0	0	491	507	197	0	39	20	
4	0	0	0	0	509	518	199	0	39	20	
5	0	0	0	0	495	508	198	0	39	20	
6	0	0	0	0	504	520	199	0	39	20	
7	0	0	0	0	489	510	198	0	39	20	
8	0	0	0	0	503	521	199	0	39	20	
9	0	0	0	0	486	507	198	0	39	20	
10	0	0	0	0	508	521	199	0	39	20	
11	0	0	0	0	488	508	198	0	39	20	
12	0	0	0	0	510	522	199	0	39	20	
13	0	0	0	0	496	507	199	0	39	20	
14	0	0	0	0	510	519	199	0	39	20	
15	0	0	0	0	497	507	199	0	39	20	
0	0	0	0	0	509	521	199	0	39	20	
1	0	0	0	0	488	506	199	0	39	20	
2	0	0	0	0	503	519	199	0	39	20	
3	0	0	0	0	493	507	199	0	39	20	
4	0	0	0	0	504	519	199	0	39	20	
5	0	0	0	0	494	510	199	0	39	20	
6	0	0	0	0	500	517	199	0	39	20	
7	0	0	0	0	498	508	199	0	39	20	
8	0	0	0	0	491	515	199	0	39	20	
9	0	0	0	0	498	503	199	0	39	20	
10	0	0	0	0	492	518	199	0	39	20	
11	0	0	0	0	501	506	199	0	39	20	
12	0	0	0	0	494	514	199	0	39	20	
13	0	0	0	0	489	508	199	0	39	20	
14	0	0	0	0	504	518	199	463	39	20	
15	0	0	0	0	495	508	199	0	39	20	
0	0	0	0	0	502	517	199	891	39	20	
1	0	0	0	0	503	504	199	0	39	20	
2	0	0	0	0	487	515	199	329	39	20	
3	0	0	0	0	493	505	199	0	39	20	
4	0	0	0	0	487	515	199	316	39	20	
5	0	0	0	0	493	505	199	0	39	20	
6	0	0	0	0	491	515	199	426	39	20	
7	0	0	0	0	496	508	199	0	39	20	
8	0	0	0	0	487	516	199	586	39	20	
9	0	0	0	0	498	512	199	0	39	20	
10	0	0	0	0	488	515	199	680	39	20	
11	0	0	0	0	485	510	199	130	39	20	
12	0	0	0	0	492	517	199	979	39	20	
13	0	0	0	0	500	508	199	353	39	20	
14	0	0	0	0	488	518	199	1017	39	20	
15	0	0	0	0	495	505	199	500	39	20	
0	0	0	0	0	490	513	199	1018	39	20	
1	0	0	0	0	492	504	199	700	39	20	
2	0	0	0	0	490	515	198	1018	39	20	
3	0	0	0	0	504	511	198	769	39	20	
4	0	0	0	0	489	516	198	1018	39	20	
5	0	0	0	0	495	506	198	822	39	20	
6	0	0	0	0	492	517	198	1018	39	20	
7	0	0	0	0	494	509	198	729	39	20	
8	0	0	0	0	487	515	198	1018	39	20	
9	0	0	0	0	496	507	198	782	39	20	
10	0	0	0	0	493	513	198	1018	39	20	
11	0	0	0	0	500	507	198	757	39	20	
12	0	0	0	0	488	513	197	1018	39	20	
13	0	0	0	0	508	507	197	736	39	20	
14	0	0	0	0	484	514	197	1018	39	20	
15	0	0	0	0	494	508	197	805	39	20	
0	0	0	0	0	491	513	197	1018	39	20	
1	0	0	0	0	496	510	197	808	39	20	
2	0	0	0	0	498	514	197	1018	39	20	
3	0	0	0	0	499	506	197	855	39	20	
4	0	0	0	0	489	516	197	1018	39	20	
5	0	0	0	0	494	509	197	838	39	20	
6	0	0	0	0	491	516	196	1018	39	20	
7	0	0	0	0	500	510	196	854	39	20	
8	0	0	0	0	496	516	196	1018	39	20	
9	0	0	0	0	496	505	196	882	39	20	
10	0	0	0	0	494	515	196	1018	39	20	
11	0	0	0	0	494	507	196	824	39	20	
12	0	0	0	0	483	516	196	1018	39	20	
13	0	0	0	0	497	505	196	820	39	20	
14	0	0	0	0	497	513	195	1018	39	20	
15	0	0	0	0	497	509	196	717	39	20	
0	0	0	0	0	492	513	195	1018	39	20	
1	0	0	0	0	496	508	195	723	39	20	
2	0	0	0	0	491	512	195	1018	39	20	
3	0	0	0	0	500	507	195	702	39	20	
4	0	0	0	0	494	509	195	1018	39	20	
5	0	0	0	0	493	505	195	700	39	20	
6	0	0	0	0	483	514	195	1018	39	20	
7	0	0	0	0	499	508	195	679	39	20	
8	0	0	0	0	490	513	195	1018	39	20	
9	0	0	0	0	502	504	195	686	39	20	
10	0	0	0	0	485	514	195	1018	39	20	
11	0	0	0	0	502	506	195	671	39	20	
12	0	0	0	0	487	515	194	1018	39	20	
13	0	0	0	0	503	504	194	669	39	20	
14	0	0	0	0	486	515	194	1018	39	20	
15	0	0	0	0	496	507	194	638	39	20	
0	0	0	0	0	491	519	194	1018	39	20	
1	0	0	0	0	500	508	194	664	39	20	
2	0	0	0	0	492	516	194	1018	39	20	
3	0	0	0	0	502	507	194	583	39	20	
4	0	0	0	0	489	517	193	1018	39	20	
5	0	0	0	0	499	506	193	570	39	20	
6	0	0	0	0	490	514	193	1018	39	20	
7	0	0	0	0	495	506	193	586	39	20	
8	0	0	0	0	487	514	193	944	39	20	
9	0	0	0	0	499	510	193	469	39	20	
10	0	0	0	0	489	514	193	858	39	19	
11	0	0	0	0	497	509	193	472	39	19	
12	0	0	0	0	492	512	193	885	39	19	
13	0	0	0	0	495	508	193	487	39	19	
14	0	0	0	0	489	511	192	767	39	19	
15	0	0	0	0	501	504	192	487	39	19	
0	0	0	0	0	496	514	192	719	39	19	
1	0	0	0	0	495	510	192	479	39	19	
2	0	0	0	0	490	515	192	1013	39	19	
3	0	0	0	0	496	508	192	523	39	19	
4	0	0	0	0	485	515	192	1018	39	19	
5	0	0	0	0	492	508	192	525	39	19	
6	0	0	0	0	479	516	191	1018	39	19	
7	0	0	0	0	495	511	191	503	39	19	
8	0	0	0	0	483	515	191	1018	39	19	
9	0	0	0	0	500	508	191	472	39	19	
10	0	0	0	0	489	514	191	1018	39	19	
11	0	0	0	0	491	505	191	424	39	19	
12	0	0	0	0	498	515	191	721	39	19	
13	0	0	0	0	494	506	191	384	39	19	
14	0	0	0	0	491	512	191	1018	39	19	
15	0	0	0	0	493	506	191	450	39	19	
0	0	0	0	0	488	515	191	675	39	19	
1	0	0	0	0	494	510	191	377	39	19	
2	0	0	0	0	489	511	191	968	39	19	
3	0	0	0	0	490	508	191	423	39	19	
4	0	0	0	0	493	513	191	796	39	19	
5	0	0	0	0	496	506	191	403	39	19	
6	0	0	0	0	490	510	191	778	39	19	
7	0	0	0	0	499	506	192	406	39	19	
8	0	0	0	0	488	515	192	1018	39	19	
9	0	0	0	0	489	505	192	450	39	19	
10	0	0	0	0	485	510	192	1018	39	19	
11	0	0	0	0	497	505	192	446	39	19	
12	0	0	0	0	492	515	192	1017	39	19	
13	0	0	0	0	493	508	192	401	39	19	
14	0	0	0	0	488	514	192	911	39	19	
15	0	0	0	0	495	509	193	373	39	19	
0	0	0	0	0	487	512	193	903	39	19	
1	0	0	0	0	496	509	193	375	39	19	
2	0	0	0	0	487	517	193	1009	39	19	
3	0	0	0	0	495	507	193	387	39	19	
4	0	0	0	0	487	512	193	637	39	19	
5	0	0	0	0	493	508	193	345	39	19	
6	0	0	0	0	484	510	193	675	39	19	
7	0	0	0	0	495	508	194	368	39	19	
8	0	0	0	0	484	513	194	768	39	19	
9	0	0	0	0	499	506	194	394	39	19	
10	0	0	0	0	487	512	194	767	39	19	
11	0	0	0	0	499	504	194	403	39	18	
12	0	0	0	0	487	513	195	793	39	18	
13	0	0	0	0	493	510	195	414	39	18	
14	0	0	0	0	495	516	195	1018	39	18	
15	0	0	0	0	488	508	195	443	39	18	
0	0	0	0	0	487	511	195	1018	39	18	
1	0	0	0	0	491	505	195	438	39	18	
2	0	0	0	0	489	514	195	968	39	18	
3	0	0	0	0	491	509	195	376	39	18	
4	0	0	0	0	481	512	195	826	39	18	
5	0	0	0	0	494	505	195	363	39	18	
6	0	0	0	0	489	513	195	763	39	18	
7	0	0	0	0	489	507	195	362	39	18	
8	0	0	0	0	483	513	195	754	39	19	
9	0	0	0	0	499	505	195	372	39	19	
10	0	0	0	0	492	514	195	896	39	19	
11	0	0	0	0	497	510	196	393	39	19	
12	0	0	0	0	486	511	196	898	39	19	
13	0	0	0	0	496	510	196	393	39	19	
14	0	0	0	0	492	513	195	715	39	19	
15	0	0	0	0	492	504	196	372	39	19	
0	0	0	0	0	490	514	196	976	39	19	
1	0	0	0	0	497	507	196	412	39	19	
2	0	0	0	0	491	514	196	920	39	19	
3	0	0	0	0	495	506	196	400	39	19	
4	0	0	0	0	484	516	196	795	39	19	
5	0	0	0	0	487	507	196	386	39	19	
6	0	0	0	0	491	514	196	1018	39	19	
7	0	0	0	0	496	506	196	421	39	19	
8	0	0	0	0	485	515	196	1018	39	19	
9	0	0	0	0	492	508	196	417	39	19	
10	0	0	0	0	482	516	196	894	39	19	
11	0	0	0	0	496	507	196	333	39	19	
12	0	0	0	0	485	516	196	1018	39	19	
13	0	0	0	0	496	507	196	374	39	19	
14	0	0	0	0	481	517	196	972	39	19	
15	0	0	0	0	492	508	196	310	39	19	
0	0	0	0	0	480	513	196	1018	39	19	
1	0	0	0	0	490	505	196	321	39	19	
2	0	0	0	0	477	515	196	1018	39	19	
3	0	0	0	0	483	508	196	300	39	19	
4	0	0	0	0	483	515	196	940	39	19	
5	0	0	0	0	490	510	196	293	39	19	
6	0	0	0	0	483	515	196	775	39	19	
7	0	0	0	0	493	505	196	285	39	19	
8	0	0	0	0	484	513	196	1014	39	19	
9	0	0	0	0	488	505	196	323	39	19	
10	0	0	0	0	491	512	196	1018	39	19	
11	0	0	0	0	493	506	196	322	39	19	
12	0	0	0	0	483	515	196	1018	39	19	
13	0	0	0	0	492	507	196	328	39	19	
14	0	0	0	0	486	515	196	1018	39	19	
15	0	0	0	0	492	505	196	392	39	19	
0	0	0	0	0	482	516	196	1018	39	19	
1	0	0	0	0	493	506	195	386	39	19	
2	0	0	0	0	492	519	196	1018	39	19	
3	0	0	0	0	487	508	195	305	39	19	
4	0	0	0	0	481	517	196	1018	39	19	
5	0	0	0	0	481	505	195	375	39	19	
6	0	0	0	0	484	515	195	1018	39	19	
7	0	0	0	0	487	507	195	121	39	19	
8	0	0	0	0	483	518	196	1018	39	19	
9	0	0	0	0	492	507	195	8	39	19	
10	0	0	0	0	482	516	195	1018	39	19	
11	0	0	0	0	494	505	195	0	39	19	
12	0	0	0	0	485	517	195	1018	39	19	
13	0	0	0	0	491	507	195	0	39	19	
14	0	0	0	0	490	513	195	1018	39	19	
15	0	0	0	0	497	503	195	0	39	19	
0	0	0	0	0	482	515	195	1018	39	19	
1	0	0	0	0	486	506	195	0	39	19	
2	0	0	0	0	481	512	195	1018	39	19	
3	0	0	0	0	492	507	195	0	39	19	
4	0	0	0	0	486	517	195	844	39	19	
5	0	0	0	0	495	505	195	0	39	19	
6	0	0	0	0	485	514	195	500	39	19	
7	0	0	0	0	494	507	195	0	39	19	
8	0	0	0	0	484	515	195	504	39	19	
9	0	0	0	0	493	506	195	0	39	19	
10	0	0	0	0	482	514	195	823	39	19	
11	0	0	0	0	500	505	195	0	39	19	
12	0	0	0	0	486	512	195	769	39	19	
13	0	0	0	0	489	507	195	0	39	19	
14	0	0	0	0	480	514	195	522	39	19	
15	0	0	0	0	489	507	195	0	39	19	
0	0	0	0	0	480	515	195	502	39	19	
1	0	0	0	0	497	507	195	11	39	19	
2	0	0	0	0	480	514	195	726	39	19	
3	0	0	0	0	490	505	195	93	39	19	
4	0	0	0	0	486	513	195	560	39	19	
5	0	0	0	0	499	508	195	149	39	19	
6	0	0	0	0	484	514	195	444	39	19	
7	0	0	0	0	502	505	195	199	39	19	
8	0	0	0	0	488	514	195	570	39	19	
9	0	0	0	0	494	506	195	286	39	19	
10	0	0	0	0	494	511	195	554	39	19	
11	0	0	0	0	491	505	195	315	39	19	
12	0	0	0	0	483	511	195	664	39	19	
13	0	0	0	0	496	505	195	373	39	19	
14	0	0	0	0	485	513	194	822	39	19	
15	0	0	0	0	501	508	194	420	39	19	
0	0	0	0	0	487	514	194	960	39	19	
1	0	0	0	0	489	507	194	439	39	19	
2	0	0	0	0	490	513	194	1017	39	19	
3	0	0	0	0	491	508	194	453	39	19	
4	0	0	0	0	485	514	194	1018	39	19	
5	0	0	0	0	489	506	194	465	39	19	
6	0	0	0	0	485	513	194	1018	39	19	
7	0	0	0	0	487	509	194	442	39	19	
8	0	0	0	0	480	516	194	1018	39	19	
9	0	0	0	0	495	509	194	479	39	19	
10	0	0	0	0	480	514	194	1018	39	19	
11	0	0	0	0	489	504	194	459	39	19	
12	0	0	0	0	479	515	194	1018	39	19	
13	0	0	0	0	486	505	194	435	39	19	
14	0	0	0	0	484	518	194	1018	39	19	
15	0	0	0	0	487	505	194	419	39	19	
0	0	0	0	0	473	512	194	1018	39	19	
1	0	0	0	0	488	507	194	267	39	19	
2	0	0	0	0	484	515	193	1018	39	19	
3	0	0	0	0	487	509	193	267	39	19	
4	0	0	0	0	482	517	193	1018	39	19	
5	0	0	0	0	493	508	193	192	39	19	
6	0	0	0	0	480	515	193	1018	39	19	
7	0	0	0	0	487	507	193	210	39	19	
8	0	0	0	0	485	515	193	1018	39	19	
9	0	0	0	0	486	507	193	88	39	19	
10	0	0	0	0	486	518	193	1018	39	19	
11	0	0	0	0	495	506	193	20	39	19	
12	0	0	0	0	482	517	193	721	39	19	
13	0	0	0	0	494	509	193	0	39	19	
14	0	0	0	0	478	514	193	512	39	19	
15	0	0	0	0	492	508	193	21	39	19	
0	0	0	0	0	480	509	193	443	39	19	
1	0	0	0	0	496	505	193	81	39	19	
2	0	0	0	0	480	514	193	505	39	19	
3	0	0	0	0	492	509	193	145	39	19	
4	0	0	0	0	488	514	193	398	39	19	
5	0	0	0	0	485	511	193	202	39	19	
6	0	0	0	0	484	515	193	539	39	19	
7	0	0	0	0	493	506	193	268	39	19	
8	0	0	0	0	487	511	193	695	39	19	
9	0	0	0	0	497	505	193	324	39	19	
10	0	0	0	0	486	510	192	693	39	19	
11	0	0	0	0	491	506	192	352	39	19	
12	0	0	0	0	480	512	192	996	39	19	
13	0	0	0	0	491	508	192	397	39	19	
14	0	0	0	0	483	514	192	1018	39	19	
15	0	0	0	0	491	505	192	462	39	19	
0	0	0	0	0	485	517	192	1018	39	19	
1	0	0	0	0	496	507	192	396	39	19	
2	0	0	0	0	480	514	192	1018	39	19	
3	0	0	0	0	491	506	192	390	39	19	
4	0	0	0	0	483	514	192	1018	39	19	
5	0	0	0	0	496	504	192	322	39	19	
6	0	0	0	0	487	516	192	1018	39	19	
7	0	0	0	0	490	503	192	261	39	19	
8	0	0	0	0	480	516	192	1018	39	19	
9	0	0	0	0	492	507	192	279	39	19	
10	0	0	0	0	479	515	192	1018	39	19	
11	0	0	0	0	486	509	192	207	39	19	
12	0	0	0	0	484	515	192	1018	39	19	
13	0	0	0	0	489	506	192	217	39	19	
14	0	0	0	0	483	517	192	1018	39	19	
15	0	0	0	0	493	509	192	210	39	19	
0	0	0	0	0	480	514	192	1018	39	19	
1	0	0	0	0	486	506	192	236	39	19	
2	0	0	0	0	468	512	192	1018	39	19	
3	0	0	0	0	487	505	192	248	39	19	
4	0	0	0	0	488	514	192	1014	39	19	
5	0	0	0	0	489	505	192	202	39	19	
6	0	0	0	0	482	514	192	1018	39	19	
7	0	0	0	0	492	510	192	235	39	19	
8	0	0	0	0	474	517	192	1018	39	19	
9	0	0	0	0	497	505	192	257	39	19	
10	0	0	0	0	486	516	192	1018	39	19	
11	0	0	0	0	497	508	192	258	39	19	
12	0	0	0	0	476	512	192	1018	39	19	
13	0	0	0	0	485	510	192	243	39	19	
14	0	0	0	0	481	513	192	1018	39	19	
15	0	0	0	0	486	505	192	201	39	19	
0	0	0	0	0	483	515	192	1011	39	19	
1	0	0	0	0	489	507	192	152	39	19	
2	0	0	0	0	483	515	191	1018	39	19	
3	0	0	0	0	496	505	192	186	39	19	
4	0	0	0	0	483	514	191	1018	39	19	
5	0	0	0	0	491	509	192	199	39	19	
6	0	0	0	0	486	516	191	1018	39	19	
7	0	0	0	0	487	506	191	194	39	19	
8	0	0	0	0	479	515	191	1018	39	19	
9	0	0	0	0	490	504	191	179	39	19	
10	0	0	0	0	481	513	191	1018	39	19	
11	0	0	0	0	489	507	191	188	39	19	
12	0	0	0	0	481	513	191	1018	39	19	
13	0	0	0	0	487	507	191	174	39	19	
14	0	0	0	0	481	512	191	1018	39	19	
15	0	0	0	0	490	505	191	168	39	19	
0	0	0	0	0	478	516	191	927	39	19	
1	0	0	0	0	482	507	191	171	39	19	
2	0	0	0	0	483	512	191	1018	39	19	
3	0	0	0	0	494	504	191	212	39	19	
4	0	0	0	0	486	512	191	1018	39	19	
5	0	0	0	0	494	507	191	228	39	19	
6	0	0	0	0	484	512	191	1018	39	19	
7	0	0	0	0	494	508	191	241	39	19	
8	0	0	0	0	483	515	191	1018	39	19	
9	0	0	0	0	486	504	191	232	39	19	
10	0	0	0	0	476	513	191	1018	39	19	
11	0	0	0	0	486	507	191	298	39	19	
12	0	0	0	0	480	519	191	1018	39	19	
13	0	0	0	0	492	506	191	346	39	19	
14	0	0	0	0	487	516	191	1018	39	19	
15	0	0	0	0	482	504	191	266	39	19	
0	0	0	0	0	484	515	191	1018	39	19	
1	0	0	0	0	486	501	191	213	39	19	
2	0	0	0	0	479	513	191	1018	39	19	
3	0	0	0	0	493	503	191	127	39	19	
4	0	0	0	0	484	516	191	1018	39	19	
5	0	0	0	0	486	507	191	112	39	19	
6	0	0	0	0	485	522	191	1018	39	19	
7	0	0	0	0	486	505	191	46	39	19	
8	0	0	0	0	477	518	191	1018	39	19	
9	0	0	0	0	491	502	191	0	39	19	
10	0	0	0	0	482	514	191	1018	39	19	
11	0	0	0	0	487	506	191	0	39	19	
12	0	0	0	0	483	516	191	1018	39	19	
13	0	0	0	0	488	507	191	0	39	19	
14	0	0	0	0	485	519	191	1018	39	19	
15	0	0	0	0	490	504	191	0	39	19	
0	0	0	0	0	487	517	191	897	39	19	
1	0	0	0	0	492	505	191	0	39	19	
2	0	0	0	0	481	516	192	1018	39	19	
3	0	0	0	0	482	507	191	0	39	19	
4	0	0	0	0	496	518	192	1018	39	19	
5	0	0	0	0	491	505	192	0	39	19	
6	0	0	0	0	488	516	192	1018	39	19	
7	0	0	0	0	485	505	192	0	39	19	
8	0	0	0	0	488	519	192	1018	39	19	
9	0	0	0	0	489	509	192	0	39	19	
10	0	0	0	0	483	518	192	1018	39	19	
11	0	0	0	0	488	507	192	0	39	19	
12	0	0	0	0	476	517	192	1018	39	19	
13	0	0	0	0	490	507	192	0	39	19	
14	0	0	0	0	481	513	192	962	39	19	
15	0	0	0	0	487	504	192	0	39	19	
0	0	0	0	0	482	516	193	847	39	19	
1	0	0	0	0	488	507	193	0	39	19	
2	0	0	0	0	483	516	193	1018	39	19	
3	0	0	0	0	490	508	193	0	39	19	
4	0	0	0	0	479	512	193	939	39	19	
5	0	0	0	0	489	503	193	0	39	19	
6	0	0	0	0	494	513	193	1018	39	19	
7	0	0	0	0	486	505	193	0	39	19	
8	0	0	0	0	489	515	194	1018	39	19	
9	0	0	0	0	483	508	194	0	39	19	
10	0	0	0	0	478	518	194	1018	39	19	
11	0	0	0	0	489	505	194	0	39	19	
12	0	0	0	0	481	515	194	1018	39	19	
13	0	0	0	0	486	507	194	0	39	19	
14	0	0	0	0	481	517	194	1018	39	19	
15	0	0	0	0	492	506	195	56	39	19	
0	0	0	0	0	483	516	195	1018	39	19	
1	0	0	0	0	483	506	195	0	39	19	
2	0	0	0	0	487	513	195	1018	39	19	
3	0	0	0	0	484	504	195	12	39	19	
4	0	0	0	0	481	513	195	1018	39	19	
5	0	0	0	0	482	508	195	0	39	19	
6	0	0	0	0	481	515	196	1018	39	19	
7	0	0	0	0	488	504	195	0	39	19	
8	0	0	0	0	470	516	196	1018	39	19	
9	0	0	0	0	481	505	196	0	39	19	
10	0	0	0	0	479	515	196	1018	39	19	
11	0	0	0	0	484	505	196	0	39	19	
12	0	0	0	0	474	515	196	1018	39	19	
13	0	0	0	0	488	504	196	0	39	19	
14	0	0	0	0	473	516	196	1018	39	19	
15	0	0	0	0	492	508	197	0	39	19	
0	0	0	0	0	481	515	197	1018	39	19	
1	0	0	0	0	492	506	197	0	39	19	
2	0	0	0	0	477	514	197	1018	39	19	
3	0	0	0	0	488	505	197	0	39	19	
4	0	0	0	0	488	518	198	1018	39	19	
5	0	0	0	0	497	505	198	0	39	19	
6	0	0	0	0	478	517	198	1018	39	19	
7	0	0	0	0	487	506	198	0	39	19	
8	0	0	0	0	480	519	198	1018	39	19	
9	0	0	0	0	490	507	198	0	39	19	
10	0	0	0	0	476	519	198	1018	39	19	
11	0	0	0	0	491	510	198	0	39	19	
12	0	0	0	0	476	516	198	1018	39	19	
13	0	0	0	0	493	505	198	7	39	19	
14	0	0	0	0	487	515	198	1018	39	19	
15	0	0	0	0	487	508	199	27	39	19	
0	0	0	0	0	489	515	199	1018	39	19	
1	0	0	0	0	494	505	199	0	39	19	
2	0	0	0	0	480	515	199	1018	39	19	
3	0	0	0	0	486	507	199	0	39	19	
4	0	0	0	0	478	512	199	1018	39	19	
5	0	0	0	0	484	506	199	0	39	19	
6	0	0	0	0	484	513	199	1018	39	19	
7	0	0	0	0	492	507	199	0	39	19	
8	0	0	0	0	479	514	199	803	39	19	
9	0	0	0	0	485	506	199	0	39	19	
10	0	0	0	0	481	515	199	914	39	19	
11	0	0	0	0	487	503	199	7	39	19	
12	0	0	0	0	482	513	199	1018	39	19	
13	0	0	0	0	490	504	199	106	39	19	
14	0	0	0	0	486	517	199	1018	39	19	
15	0	0	0	0	485	507	199	129	39	19	
0	0	0	0	0	481	517	199	1018	39	19	
1	0	0	0	0	483	507	199	205	39	19	
2	0	0	0	0	487	516	199	1018	39	19	
3	0	0	0	0	481	507	199	203	39	19	
4	0	0	0	0	488	516	199	1018	39	19	
5	0	0	0	0	489	504	199	171	39	19	
6	0	0	0	0	488	517	199	1018	39	19	
7	0	0	0	0	491	508	199	148	39	19	
8	0	0	0	0	477	514	199	1018	39	19	
9	0	0	0	0	495	506	199	92	39	19	
10	0	0	0	0	483	512	199	1018	39	19	
11	0	0	0	0	488	508	199	152	39	19	
12	0	0	0	0	478	514	199	1018	39	19	
13	0	0	0	0	489	506	199	145	39	19	
14	0	0	0	0	477	513	199	1018	39	19	
15	0	0	0	0	489	507	199	145	39	19	
0	0	0	0	0	481	516	200	1018	39	19	
1	0	0	0	0	494	507	199	162	39	19	
2	0	0	0	0	481	512	199	1018	39	19	
3	0	0	0	0	490	505	199	120	39	19	
4	0	0	0	0	474	515	199	1018	39	19	
5	0	0	0	0	483	510	199	100	39	19	
6	0	0	0	0	483	513	199	1018	39	19	
7	0	0	0	0	488	507	199	71	39	19	
8	0	0	0	0	483	515	199	1018	39	19	
9	0	0	0	0	485	507	199	91	39	19	
10	0	0	0	0	481	518	199	1018	39	19	
11	0	0	0	0	484	505	199	138	39	19	
12	0	0	0	0	475	515	199	1018	39	19	
13	0	0	0	0	484	503	199	81	39	19	
14	0	0	0	0	476	514	199	1018	39	19	
15	0	0	0	0	480	508	199	132	39	19	
0	0	0	0	0	477	518	199	1018	39	19	
1	0	0	0	0	482	504	199	122	39	19	
2	0	0	0	0	476	516	199	1018	39	19	
3	0	0	0	0	486	507	199	0	39	19	
4	0	0	0	0	474	518	199	1018	39	19	
5	0	0	0	0	489	505	199	0	39	19	
6	0	0	0	0	480	515	199	1018	39	19	
7	0	0	0	0	483	504	199	0	39	19	
8	0	0	0	0	474	518	199	1018	39	19	
9	0	0	0	0	484	505	199	0	39	19	
10	0	0	0	0	483	518	199	1018	39	19	
11	0	0	0	0	480	508	199	0	39	19	
12	0	0	0	0	479	515	199	1018	39	19	
13	0	0	0	0	484	506	199	0	39	19	
14	0	0	0	0	473	515	199	1018	39	19	
15	0	0	0	0	489	507	199	0	39	19	
0	0	0	0	0	484	515	199	1018	39	19	
1	0	0	0	0	480	505	199	0	39	19	
2	0	0	0	0	480	518	199	1018	39	19	
3	0	0	0	0	488	509	199	0	39	19	
4	0	0	0	0	478	515	199	1018	39	19	
5	0	0	0	0	485	506	199	0	39	19	
6	0	0	0	0	485	511	199	1018	39	19	
7	0	0	0	0	490	504	199	0	39	19	
8	0	0	0	0	480	518	199	1018	39	19	
9	0	0	0	0	486	511	198	0	39	19	
10	0	0	0	0	477	518	199	1018	39	19	
11	0	0	0	0	484	508	198	0	39	19	
12	0	0	0	0	484	515	198	1018	39	19	
13	0	0	0	0	490	504	198	0	39	19	
14	0	0	0	0	481	516	198	1018	39	19	
15	0	0	0	0	485	504	198	0	39	19	
0	0	0	0	0	480	515	198	1018	39	19	
1	0	0	0	0	481	507	198	7	39	19	
2	0	0	0	0	475	515	198	1018	39	19	
3	0	0	0	0	483	504	198	0	39	19	
4	0	0	0	0	475	513	198	1018	39	19	
5	0	0	0	0	481	506	198	0	39	19	
6	0	0	0	0	483	515	198	1018	39	19	
7	0	0	0	0	483	505	198	20	39	19	
8	0	0	0	0	481	514	198	1018	39	19	
9	0	0	0	0	483	508	198	0	39	19	
10	0	0	0	0	475	517	198	1018	39	19	
11	0	0	0	0	485	508	197	0	39	19	
12	0	0	0	0	477	515	198	1018	39	19	
13	0	0	0	0	478	505	197	7	39	19	
14	0	0	0	0	483	519	197	1018	39	19	
15	0	0	0	0	481	505	197	1	39	19	
0	0	0	0	0	484	515	197	1018	39	19	
1	0	0	0	0	480	506	197	0	39	19	
2	0	0	0	0	472	514	197	1018	39	19	
3	0	0	0	0	483	507	197	31	39	19	
4	0	0	0	0	476	515	197	1018	39	19	
5	0	0	0	0	491	505	197	8	39	19	
6	0	0	0	0	476	514	197	1018	39	19	
7	0	0	0	0	486	506	197	0	39	19	
8	0	0	0	0	472	513	197	1018	39	19	
9	0	0	0	0	487	508	196	0	39	19	
10	0	0	0	0	490	514	196	932	39	19	
11	0	0	0	0	487	505	196	0	39	19	
12	0	0	0	0	484	515	196	1018	39	19	
13	0	0	0	0	483	507	196	0	39	19	
14	0	0	0	0	474	516	196	1018	39	19	
15	0	0	0	0	482	508	196	1	39	19	
0	0	0	0	0	476	515	196	1018	39	19	
1	0	0	0	0	480	507	196	176	39	19	
2	0	0	0	0	477	517	196	1018	39	19	
3	0	0	0	0	487	506	196	11	39	19	
4	0	0	0	0	477	516	196	1018	39	19	
5	0	0	0	0	483	504	195	198	39	19	
6	0	0	0	0	477	517	196	1018	39	19	
7	0	0	0	0	480	507	195	0	39	19	
8	0	0	0	0	476	518	196	1018	39	19	
9	0	0	0	0	484	504	195	0	39	19	
10	0	0	0	0	480	518	195	1018	39	19	
11	0	0	0	0	484	504	195	0	39	19	
12	0	0	0	0	476	515	195	1018	39	19	
13	0	0	0	0	481	508	195	0	39	19	
14	0	0	0	0	474	518	195	1018	39	19	
15	0	0	0	0	481	507	195	0	39	19	
0	0	0	0	0	473	519	195	1018	39	19	
1	0	0	0	0	478	504	195	0	39	19	
2	0	0	0	0	472	517	195	1018	39	19	
3	0	0	0	0	484	506	195	0	39	19	
4	0	0	0	0	477	516	195	1018	39	19	
5	0	0	0	0	482	507	195	0	39	19	
6	0	0	0	0	475	516	195	1018	39	19	
7	0	0	0	0	481	504	195	0	39	19	
8	0	0	0	0	481	518	195	1018	39	19	
9	0	0	0	0	485	507	194	0	39	19	
10	0	0	0	0	472	518	195	1018	39	19	
11	0	0	0	0	478	505	194	0	39	19	
12	0	0	0	0	478	516	195	1018	39	19	
13	0	0	0	0	483	508	194	0	39	19	
14	0	0	0	0	474	516	194	1018	39	19	
15	0	0	0	0	487	506	194	0	39	19	
0	0	0	0	0	472	517	194	1018	39	19	
1	0	0	0	0	481	507	194	0	39	19	
2	0	0	0	0	479	515	194	1018	39	19	
3	0	0	0	0	475	505	194	0	39	19	
4	0	0	0	0	478	517	194	1018	39	19	
5	0	0	0	0	481	506	194	0	39	19	
6	0	0	0	0	475	517	194	1018	39	19	
7	0	0	0	0	483	504	193	0	39	19	
8	0	0	0	0	471	516	194	1018	39	19	
9	0	0	0	0	486	507	193	0	39	19	
10	0	0	0	0	473	515	193	1018	39	19	
11	0	0	0	0	489	505	193	0	39	19	
12	0	0	0	0	471	515	193	1018	39	19	
13	0	0	0	0	487	504	193	0	39	19	
14	0	0	0	0	473	516	193	1018	39	19	
15	0	0	0	0	488	505	193	0	39	19	
0	0	0	0	0	476	514	193	1018	39	19	
1	0	0	0	0	477	508	193	0	39	19	
2	0	0	0	0	475	517	193	1018	39	19	
3	0	0	0	0	482	506	193	0	39	19	
4	0	0	0	0	472	523	193	1018	39	19	
5	0	0	0	0	484	506	193	0	39	19	
6	0	0	0	0	477	518	193	1018	39	19	
7	0	0	0	0	480	505	193	189	39	19	
8	0	0	0	0	476	519	193	1018	39	19	
9	0	0	0	0	484	505	192	0	39	19	
10	0	0	0	0	487	516	193	1018	39	19	
11	0	0	0	0	479	506	192	0	39	19	
12	0	0	0	0	479	519	193	1018	39	19	
13	0	0	0	0	476	504	192	0	39	19	
14	0	0	0	0	478	521	193	1018	39	19	
15	0	0	0	0	483	507	192	0	39	19	
0	0	0	0	0	478	520	193	1018	39	19	
1	0	0	0	0	475	504	192	0	39	19	
2	0	0	0	0	475	522	192	1018	39	19	
3	0	0	0	0	483	505	192	0	39	19	
4	0	0	0	0	481	518	192	1018	39	19	
5	0	0	0	0	480	506	192	0	39	19	
6	0	0	0	0	471	521	192	1018	39	19	
7	0	0	0	0	480	505	192	0	39	19	
8	0	0	0	0	475	519	192	1018	39	19	
9	0	0	0	0	475	505	192	0	39	19	
10	0	0	0	0	476	517	192	1004	39	19	
11	0	0	0	0	487	505	192	0	39	19	
12	0	0	0	0	476	519	192	1018	39	19	
13	0	0	0	0	486	504	192	0	39	19	
14	0	0	0	0	476	519	192	1018	39	19	
15	0	0	0	0	486	507	191	0	39	19	
0	0	0	0	0	483	519	192	1018	39	19	
1	0	0	0	0	479	504	191	0	39	19	
2	0	0	0	0	487	522	192	1018	39	19	
3	0	0	0	0	481	507	191	0	39	19	
4	0	0	0	0	479	519	192	1018	39	19	
5	0	0	0	0	486	504	191	0	39	19	
6	0	0	0	0	484	521	192	1018	39	19	
7	0	0	0	0	481	509	191	0	39	19	
8	0	0	0	0	484	521	192	1018	39	19	
9	0	0	0	0	481	503	191	0	39	19	
10	0	0	0	0	475	518	191	1018	39	19	
11	0	0	0	0	486	509	191	0	39	19	
12	0	0	0	0	478	519	192	1018	39	19	
13	0	0	0	0	480	507	191	0	39	19	
14	0	0	0	0	479	521	191	1018	39	19	
15	0	0	0	0	477	503	191	0	39	19	
0	0	0	0	0	479	519	191	1018	39	19	
1	0	0	0	0	483	503	191	0	39	19	
2	0	0	0	0	481	516	191	1018	39	19	
3	0	0	0	0	492	505	191	0	39	19	
4	0	0	0	0	490	518	191	0	39	19	
5	0	0	0	0	484	505	191	0	39	19	
6	0	0	0	0	474	517	191	590	39	19	
7	0	0	0	0	488	506	191	0	39	19	
8	0	0	0	0	476	517	191	722	39	19	
9	0	0	0	0	486	503	191	0	39	19	
10	0	0	0	0	479	518	191	1018	39	19	
11	0	0	0	0	489	507	191	0	39	19	
12	0	0	0	0	478	516	191	1018	39	19	
13	0	0	0	0	490	505	191	0	39	19	
14	0	0	0	0	479	514	191	696	39	19	
15	0	0	0	0	488	506	191	0	39	19	
0	0	0	0	0	490	514	191	1018	39	19	
1	0	0	0	0	488	504	190	0	39	19	
2	0	0	0	0	481	517	190	1018	39	19	
3	0	0	0	0	487	505	190	0	39	19	
4	0	0	0	0	472	516	190	1018	39	19	
5	0	0	0	0	486	510	190	0	39	19	
6	0	0	0	0	480	517	190	1018	39	19	
7	0	0	0	0	487	506	190	0	39	19	
8	0	0	0	0	478	514	190	1018	39	19	
9	0	0	0	0	488	508	190	0	39	19	
10	0	0	0	0	476	515	190	1018	39	19	
11	0	0	0	0	488	504	190	5	39	19	
12	0	0	0	0	481	515	190	1018	39	19	
13	0	0	0	0	486	504	190	74	39	19	
14	0	0	0	0	480	513	190	1018	39	19	
15	0	0	0	0	483	505	190	153	39	19	
0	0	0	0	0	481	513	190	1018	39	19	
1	0	0	0	0	488	505	190	160	39	19	
2	0	0	0	0	481	517	190	1018	39	19	
3	0	0	0	0	486	506	190	239	39	19	
4	0	0	0	0	481	512	190	1018	39	19	
5	0	0	0	0	487	506	190	290	39	19	
6	0	0	0	0	480	514	190	1018	39	19	
7	0	0	0	0	486	504	190	334	39	19	
8	0	0	0	0	472	516	190	1018	39	19	
9	0	0	0	0	483	509	190	431	39	19	
10	0	0	0	0	480	515	190	1018	39	19	
11	0	0	0	0	486	504	190	370	39	19	
12	0	0	0	0	472	516	190	1018	39	19	
13	0	0	0	0	492	505	190	410	39	19	
14	0	0	0	0	484	516	189	1018	39	19	
15	0	0	0	0	483	505	189	358	39	19	
0	0	0	0	0	480	516	190	1018	39	19	
1	0	0	0	0	483	506	189	410	39	19	
2	0	0	0	0	481	514	189	1018	39	19	
3	0	0	0	0	488	505	189	450	39	19	
4	0	0	0	0	477	517	190	1018	39	19	
5	0	0	0	0	485	509	189	408	39	19	
6	0	0	0	0	477	517	189	1018	39	19	
7	0	0	0	0	485	503	189	358	39	19	
8	0	0	0	0	477	515	189	1018	39	19	
9	0	0	0	0	481	508	189	361	39	19	
10	0	0	0	0	480	514	189	1018	39	19	
11	0	0	0	0	493	507	189	324	39	19	
12	0	0	0	0	476	517	189	1018	39	19	
13	0	0	0	0	490	507	189	343	39	19	
14	0	0	0	0	482	517	189	1018	39	19	
15	0	0	0	0	491	508	189	412	39	19	
0	0	0	0	0	482	515	189	1018	39	19	
1	0	0	0	0	492	506	189	371	39	19	
2	0	0	0	0	483	514	189	1018	39	19	
3	0	0	0	0	485	507	189	297	39	19	
4	0	0	0	0	477	516	189	1018	39	19	
5	0	0	0	0	482	510	189	324	39	19	
6	0	0	0	0	476	512	189	1018	39	19	
7	0	0	0	0	488	502	189	333	39	19	
8	0	0	0	0	478	514	189	1018	39	19	
9	0	0	0	0	488	506	189	303	39	19	
10	0	0	0	0	487	516	189	1018	39	19	
11	0	0	0	0	491	504	189	254	39	19	
12	0	0	0	0	485	513	189	1018	39	19	
13	0	0	0	0	485	507	189	211	39	19	
14	0	0	0	0	488	515	189	1018	39	19	
15	0	0	0	0	487	505	189	220	39	19	
0	0	0	0	0	490	513	189	1018	39	19	
1	0	0	0	0	494	505	189	219	39	19	
2	0	0	0	0	476	515	188	1018	39	19	
3	0	0	0	0	489	508	188	158	39	19	
4	0	0	0	0	483	516	189	1018	39	19	
5	0	0	0	0	487	508	188	140	39	19	
6	0	0	0	0	480	513	188	1018	39	19	
7	0	0	0	0	487	506	188	175	39	19	
8	0	0	0	0	480	516	188	1018	39	19	
9	0	0	0	0	492	504	188	157	39	19	
10	0	0	0	0	487	515	188	1018	39	19	
11	0	0	0	0	481	504	188	153	39	19	
12	0	0	0	0	486	515	188	1018	39	19	
13	0	0	0	0	487	507	188	117	39	19	
14	0	0	0	0	482	513	188	1018	39	19	
15	0	0	0	0	489	505	188	74	39	19	
0	0	0	0	0	483	515	188	1018	39	19	
1	0	0	0	0	490	505	188	69	39	19	
2	0	0	0	0	480	517	188	1018	39	19	
3	0	0	0	0	480	509	188	76	39	19	
4	0	0	0	0	483	516	188	1018	39	19	
5	0	0	0	0	490	508	188	63	39	19	
6	0	0	0	0	480	516	188	1018	39	19	
7	0	0	0	0	485	507	188	63	39	19	
8	0	0	0	0	480	518	188	1018	39	19	
9	0	0	0	0	487	507	188	35	39	19	
10	0	0	0	0	481	518	188	1018	39	19	
11	0	0	0	0	486	504	188	196	39	19	
12	0	0	0	0	489	518	188	1018	39	19	
13	0	0	0	0	489	507	188	311	39	19	
14	0	0	0	0	481	519	188	1018	39	19	
15	0	0	0	0	479	508	188	335	39	19	
0	0	0	0	0	491	519	188	1018	39	19	
1	0	0	0	0	479	505	188	1018	39	19	
2	0	0	0	0	490	522	188	1018	39	19	
3	0	0	0	0	479	507	188	1018	39	19	
4	0	0	0	0	494	519	188	1018	39	19	
5	0	0	0	0	481	506	188	1018	39	19	
6	0	0	0	0	507	521	188	1018	39	19	
7	0	0	0	0	491	505	188	712	39	19	
8	0	0	0	0	505	521	188	1018	39	19	
9	0	0	0	0	481	503	187	108	39	19	
10	0	0	0	0	509	519	188	1018	39	19	
11	0	0	0	0	480	506	187	0	39	19	
12	0	0	0	0	490	516	188	0	39	19	
13	0	0	0	0	487	510	187	0	39	19	
14	0	0	0	0	487	518	187	0	39	19	
15	0	0	0	0	492	508	187	0	39	19	
0	0	0	0	0	492	516	187	0	39	19	
1	0	0	0	0	492	506	187	0	39	19	
2	0	0	0	0	490	514	187	0	39	19	
3	0	0	0	0	495	509	187	0	39	19	
4	0	0	0	0	492	511	187	0	39	19	
5	0	0	0	0	492	509	187	0	39	19	
6	0	0	0	0	495	515	187	0	39	19	
7	0	0	0	0	497	508	187	0	39	19	
8	0	0	0	0	489	515	187	0	39	19	
9	0	0	0	0	498	508	187	0	39	19	
10	0	0	0	0	483	514	187	0	39	19	
11	0	0	0	0	487	506	187	0	39	19	
12	0	0	0	0	492	515	187	583	39	19	
13	0	0	0	0	493	509	187	0	39	19	
14	0	0	0	0	489	516	187	565	39	19	
15	0	0	0	0	494	508	187	0	39	19	
0	0	0	0	0	494	515	187	985	39	19	
1	0	0	0	0	494	508	187	28	39	19	
2	0	0	0	0	486	514	187	953	39	19	
3	0	0	0	0	492	509	187	101	39	19	
4	0	0	0	0	484	510	187	856	39	19	
5	0	0	0	0	498	503	187	160	39	19	
6	0	0	0	0	485	511	187	903	39	19	
7	0	0	0	0	491	507	187	274	39	19	
8	0	0	0	0	497	515	187	1018	39	19	
9	0	0	0	0	498	506	187	341	39	19	
10	0	0	0	0	487	513	187	1018	39	19	
11	0	0	0	0	488	509	187	401	39	19	
12	0	0	0	0	494	518	187	1018	39	19	
13	0	0	0	0	497	510	187	438	39	19	
14	0	0	0	0	494	513	187	982	39	19	
15	0	0	0	0	491	510	187	437	39	19	
0	0	0	0	0	492	517	187	1018	39	19	
1	0	0	0	0	497	508	187	492	39	19	
2	0	0	0	0	490	515	187	787	39	19	
3	0	0	0	0	496	508	187	482	39	19	
4	0	0	0	0	498	513	187	998	39	19	
5	0	0	0	0	496	508	187	541	39	19	
6	0	0	0	0	498	511	187	870	39	19	
7	0	0	0	0	499	504	187	551	39	19	
8	0	0	0	0	497	507	187	836	39	19	
9	0	0	0	0	489	508	187	569	39	19	
10	0	0	0	0	496	517	186	972	39	19	
11	0	0	0	0	499	509	187	612	39	19	
12	0	0	0	0	502	513	186	1018	39	19	
13	0	0	0	0	499	506	187	636	39	19	
14	0	0	0	0	492	514	186	1018	39	19	
15	0	0	0	0	491	511	186	611	39	19	
0	0	0	0	0	491	514	186	1018	39	19	
1	0	0	0	0	497	507	186	611	39	19	
2	0	0	0	0	495	511	186	1008	39	19	
3	0	0	0	0	495	506	186	600	39	19	
4	0	0	0	0	488	514	186	1018	39	19	
5	0	0	0	0	498	506	186	600	39	19	
6	0	0	0	0	496	513	186	949	39	19	
7	0	0	0	0	499	508	186	559	39	19	
8	0	0	0	0	496	514	186	1018	39	19	
9	0	0	0	0	494	506	186	588	39	19	
10	0	0	0	0	499	516	186	848	39	19	
11	0	0	0	0	487	511	186	530	39	19	
12	0	0	0	0	500	516	186	1017	39	19	
13	0	0	0	0	503	509	186	561	39	19	
14	0	0	0	0	494	516	186	938	39	19	
15	0	0	0	0	499	504	186	537	39	19	
0	0	0	0	0	497	515	186	922	39	19	
1	0	0	0	0	500	506	186	528	39	19	
2	0	0	0	0	490	512	186	800	39	19	
3	0	0	0	0	500	508	186	519	39	19	
4	0	0	0	0	498	511	186	824	39	19	
5	0	0	0	0	494	509	186	527	39	19	
6	0	0	0	0	492	512	186	728	39	19	
7	0	0	0	0	497	509	186	519	39	19	
8	0	0	0	0	504	513	186	853	39	19	
9	0	0	0	0	499	507	186	533	39	19	
10	0	0	0	0	494	513	186	916	39	19	
11	0	0	0	0	494	505	186	539	39	19	
12	0	0	0	0	492	510	186	757	39	19	
13	0	0	0	0	497	505	186	512	39	19	
14	0	0	0	0	491	512	186	747	39	19	
15	0	0	0	0	495	506	186	512	39	19	
0	0	0	0	0	498	514	186	859	39	19	
1	0	0	0	0	496	510	186	530	39	19	
2	0	0	0	0	502	512	186	864	39	19	
3	0	0	0	0	496	506	186	526	39	19	
4	0	0	0	0	504	515	186	732	39	19	
5	0	0	0	0	497	510	186	508	39	19	
6	0	0	0	0	499	513	186	729	39	19	
7	0	0	0	0	496	507	186	500	39	19	
8	0	0	0	0	492	515	186	750	39	19	
9	0	0	0	0	498	508	186	505	39	19	
10	0	0	0	0	504	513	186	726	39	19	
11	0	0	0	0	493	509	186	494	39	19	
12	0	0	0	0	496	513	186	724	39	19	
13	0	0	0	0	498	512	186	496	39	19	
14	0	0	0	0	496	514	186	812	39	19	
15	0	0	0	0	504	507	186	514	39	19	
0	0	0	0	0	500	515	187	821	39	19	
1	0	0	0	0	498	506	187	507	39	19	
2	0	0	0	0	507	516	186	726	39	19	
3	0	0	0	0	496	509	187	484	39	19	
4	0	0	0	0	499	515	187	761	39	19	
5	0	0	0	0	495	507	187	476	39	19	
6	0	0	0	0	489	512	187	775	39	20	
7	0	0	0	0	491	509	187	491	39	19	
8	0	0	0	0	500	516	187	771	39	20	
9	0	0	0	0	496	511	187	476	39	20	
10	0	0	0	0	496	513	187	680	39	20	
11	0	0	0	0	492	505	187	464	39	20	
12	0	0	0	0	502	513	187	709	39	20	
13	0	0	0	0	492	504	187	480	39	20	
14	0	0	0	0	499	512	187	801	39	20	
15	0	0	0	0	499	507	187	488	39	20	
0	0	0	0	0	500	511	187	744	39	20	
1	0	0	0	0	500	506	187	472	39	20	
2	0	0	0	0	507	512	187	731	39	20	
3	0	0	0	0	493	507	187	458	39	20	
4	0	0	0	0	506	516	187	782	39	20	
5	0	0	0	0	497	507	187	464	39	20	
6	0	0	0	0	499	515	187	707	39	20	
7	0	0	0	0	502	508	187	449	39	20	
8	0	0	0	0	503	512	187	648	39	21	
9	0	0	0	0	498	506	187	440	39	21	
10	0	0	0	0	503	511	187	772	39	21	
11	0	0	0	0	500	510	187	465	39	21	
12	0	0	0	0	497	513	187	770	39	21	
13	0	0	0	0	494	507	186	472	39	21	
14	0	0	0	0	502	515	186	815	39	21	
15	0	0	0	0	498	506	186	456	39	21	
0	0	0	0	0	502	513	186	753	39	21	
1	0	0	0	0	495	505	186	440	39	21	
2	0	0	0	0	504	515	185	798	39	21	
3	0	0	0	0	487	509	185	450	39	21	
4	0	0	0	0	499	516	185	657	39	21	
5	0	0	0	0	496	508	184	422	39	21	
6	0	0	0	0	496	514	184	705	39	21	
7	0	0	0	0	496	509	184	418	39	21	
8	0	0	0	0	497	510	184	673	39	21	
9	0	0	0	0	504	509	183	415	39	21	
10	0	0	0	0	499	512	183	816	39	21	
11	0	0	0	0	499	510	183	454	39	21	
12	0	0	0	0	495	513	182	633	39	21	
13	0	0	0	0	496	509	182	410	39	21	
14	0	0	0	0	502	514	182	703	39	21	
15	0	0	0	0	497	508	182	415	39	21	
0	0	0	0	0	507	512	181	736	39	21	
1	0	0	0	0	499	507	181	437	39	21	
2	0	0	0	0	497	511	181	679	39	21	
3	0	0	0	0	499	507	181	420	39	21	
4	0	0	0	0	497	514	180	655	39	21	
5	0	0	0	0	499	505	180	420	39	21	
6	0	0	0	0	500	514	180	733	39	21	
7	0	0	0	0	495	507	180	449	39	21	
8	0	0	0	0	495	511	180	611	39	21	
9	0	0	0	0	497	507	179	426	39	21	
10	0	0	0	0	506	513	179	745	39	21	
11	0	0	0	0	499	508	179	435	39	21	
12	0	0	0	0	499	514	179	703	39	21	
13	0	0	0	0	499	507	179	439	39	21	
14	0	0	0	0	509	515	179	591	39	21	
15	0	0	0	0	492	507	179	415	39	21	
0	0	0	0	0	505	512	179	656	39	21	
1	0	0	0	0	495	507	179	441	39	21	
2	0	0	0	0	502	513	179	627	39	21	
3	0	0	0	0	509	508	179	435	39	21	
4	0	0	0	0	500	511	179	636	39	21	
5	0	0	0	0	504	507	179	445	39	21	
6	0	0	0	0	500	512	179	717	39	21	
7	0	0	0	0	500	508	179	463	39	21	
8	0	0	0	0	500	511	180	729	39	21	
9	0	0	0	0	496	506	180	453	39	21	
10	0	0	0	0	504	514	180	624	39	21	
11	0	0	0	0	502	509	180	427	39	20	
12	0	0	0	0	507	512	180	693	39	20	
13	0	0	0	0	496	507	180	444	39	20	
14	0	0	0	0	503	518	180	637	39	20	
15	0	0	0	0	496	509	180	448	39	20	
0	0	0	0	0	502	515	180	641	39	20	
1	0	0	0	0	496	509	181	457	39	20	
2	0	0	0	0	498	512	181	785	39	20	
3	0	0	0	0	496	507	181	475	39	20	
4	0	0	0	0	502	513	181	572	39	20	
5	0	0	0	0	504	508	181	444	39	20	
6	0	0	0	0	507	515	181	734	39	20	
7	0	0	0	0	504	508	181	483	39	20	
8	0	0	0	0	499	513	181	620	39	20	
9	0	0	0	0	502	507	181	447	39	20	
10	0	0	0	0	504	513	181	612	39	20	
11	0	0	0	0	499	509	181	448	39	20	
12	0	0	0	0	500	513	182	568	39	20	
13	0	0	0	0	504	508	182	446	39	20	
14	0	0	0	0	500	509	181	619	39	21	
15	0	0	0	0	499	507	182	461	39	21	
0	0	0	0	0	500	515	182	691	39	21	
1	0	0	0	0	502	509	182	468	39	21	
2	0	0	0	0	500	513	182	630	39	21	
3	0	0	0	0	505	506	182	466	39	21	
4	0	0	0	0	503	515	182	660	39	21	
5	0	0	0	0	503	509	182	463	39	21	
6	0	0	0	0	509	515	182	630	39	21	
7	0	0	0	0	499	509	182	461	39	21	
8	0	0	0	0	499	513	182	773	39	21	
9	0	0	0	0	503	508	182	480	39	21	
10	0	0	0	0	501	514	182	743	39	21	
11	0	0	0	0	498	511	183	472	39	21	
12	0	0	0	0	492	516	183	1018	39	21	
13	0	0	0	0	498	505	183	496	39	21	
14	0	0	0	0	499	515	183	993	39	21	
15	0	0	0	0	508	507	183	448	39	21	
0	0	0	0	0	502	514	183	1018	39	21	
1	0	0	0	0	497	507	183	464	39	21	
2	0	0	0	0	508	519	183	1018	39	21	
3	0	0	0	0	497	506	183	513	39	21	
4	0	0	0	0	496	514	183	1018	39	21	
5	0	0	0	0	500	508	182	432	39	21	
6	0	0	0	0	500	516	182	1018	39	21	
7	0	0	0	0	499	507	182	412	39	21	
8	0	0	0	0	495	516	182	1018	39	21	
9	0	0	0	0	495	510	182	496	39	21	
10	0	0	0	0	502	518	182	1018	39	21	
11	0	0	0	0	497	505	182	733	39	21	
12	0	0	0	0	504	524	182	1018	39	21	
13	0	0	0	0	505	510	182	1018	39	21	
14	0	0	0	0	510	521	182	1018	39	21	
15	0	0	0	0	501	509	182	1018	39	21	
0	0	0	0	0	519	519	182	1018	39	21	
1	0	0	0	0	492	508	181	1018	39	21	
2	0	0	0	0	518	523	182	1018	39	21	
3	0	0	0	0	498	504	181	1018	39	21	
4	0	0	0	0	520	518	182	157	39	21	
5	0	0	0	0	489	507	181	1018	39	21	
6	0	0	0	0	527	520	182	0	39	21	
7	0	0	0	0	495	507	181	478	39	21	
8	0	0	0	0	523	520	182	0	39	21	
9	0	0	0	0	498	509	181	597	39	21	
10	0	0	0	0	525	524	181	0	39	21	
11	0	0	0	0	490	509	181	1018	39	21	
12	0	0	0	0	528	519	182	0	39	21	
13	0	0	0	0	489	507	180	0	39	21	
14	0	0	0	0	523	524	182	0	39	21	
15	0	0	0	0	490	509	180	0	39	21	
0	0	0	0	0	522	521	182	0	39	21	
1	0	0	0	0	485	510	180	0	39	21	
2	0	0	0	0	528	518	182	0	39	21	
3	0	0	0	0	490	505	181	0	39	21	
4	0	0	0	0	520	523	182	0	39	21	
5	0	0	0	0	492	509	181	0	39	21	
6	0	0	0	0	516	520	182	0	39	21	
7	0	0	0	0	492	509	181	0	39	21	
8	0	0	0	0	530	523	182	0	39	21	
9	0	0	0	0	495	510	181	0	39	21	
10	0	0	0	0	520	521	182	0	39	21	
11	0	0	0	0	492	508	182	0	39	21	
12	0	0	0	0	530	521	183	0	39	21	
13	0	0	0	0	496	511	182	0	39	21	
14	0	0	0	0	520	522	183	0	39	21	
15	0	0	0	0	494	511	182	0	39	21	
0	0	0	0	0	521	519	184	0	39	21	
1	0	0	0	0	489	507	183	0	39	21	
2	0	0	0	0	526	520	184	0	39	21	
3	0	0	0	0	495	508	183	0	39	21	
4	0	0	0	0	525	522	184	0	39	21	
5	0	0	0	0	491	509	183	0	39	21	
6	0	0	0	0	520	521	184	0	39	21	
7	0	0	0	0	494	508	184	0	39	21	
8	0	0	0	0	528	521	185	0	39	21	
9	0	0	0	0	484	509	184	0	39	21	
10	0	0	0	0	527	522	185	0	39	21	
11	0	0	0	0	487	511	185	0	39	21	
12	0	0	0	0	523	522	186	0	39	21	
13	0	0	0	0	493	510	185	0	39	21	
14	0	0	0	0	524	519	187	0	39	21	
15	0	0	0	0	485	509	186	0	39	21	
0	0	0	0	0	519	523	187	0	39	21	
1	0	0	0	0	487	508	186	0	39	21	
2	0	0	0	0	519	518	187	0	39	21	
3	0	0	0	0	491	508	187	0	39	21	
4	0	0	0	0	532	525	188	0	39	21	
5	0	0	0	0	496	509	187	0	39	21	
6	0	0	0	0	536	523	188	0	39	21	
7	0	0	0	0	492	507	188	0	39	21	
8	0	0	0	0	532	522	189	0	39	21	
9	0	0	0	0	495	504	188	0	39	21	
10	0	0	0	0	531	519	189	0	39	21	
11	0	0	0	0	495	506	189	0	39	21	
12	0	0	0	0	523	523	190	0	39	21	
13	0	0	0	0	497	505	189	0	39	21	
14	0	0	0	0	520	520	190	0	39	21	
15	0	0	0	0	493	508	190	0	39	21	
0	0	0	0	0	525	522	191	0	39	21	
1	0	0	0	0	498	509	190	0	39	21	
2	0	0	0	0	530	521	191	0	39	21	
3	0	0	0	0	496	509	191	562	39	21	
4	0	0	0	0	534	522	192	0	39	21	
5	0	0	0	0	502	511	191	175	39	21	
6	0	0	0	0	529	524	192	0	39	21	
7	0	0	0	0	494	508	191	1018	39	21	
8	0	0	0	0	534	521	192	0	39	21	
9	0	0	0	0	494	510	191	1018	39	21	
10	0	0	0	0	534	519	193	0	39	21	
11	0	0	0	0	494	505	192	1018	39	21	
12	0	0	0	0	534	520	193	0	39	21	
13	0	0	0	0	492	507	192	1018	39	21	
14	0	0	0	0	519	521	193	0	39	21	
15	0	0	0	0	493	507	192	0	39	21	
0	0	0	0	0	522	524	194	0	39	21	
1	0	0	0	0	491	509	193	1018	39	21	
2	0	0	0	0	526	521	194	0	39	21	
3	0	0	0	0	491	510	193	355	39	21	
4	0	0	0	0	526	522	195	0	39	21	
5	0	0	0	0	489	508	193	348	39	21	
6	0	0	0	0	530	524	195	0	39	21	
7	0	0	0	0	491	512	194	1018	39	21	
8	0	0	0	0	520	521	195	0	39	21	
9	0	0	0	0	492	508	194	0	39	21	
10	0	0	0	0	527	520	195	0	39	21	
11	0	0	0	0	491	508	194	0	39	21	
12	0	0	0	0	533	519	195	0	39	21	
13	0	0	0	0	493	508	195	0	39	21	
14	0	0	0	0	521	521	195	0	39	21	
15	0	0	0	0	500	507	195	0	39	21	
0	0	0	0	0	524	517	196	0	39	21	
1	0	0	0	0	495	505	195	0	39	21	
2	0	0	0	0	525	524	196	0	39	21	
3	0	0	0	0	491	507	195	0	39	21	
4	0	0	0	0	524	524	196	0	39	21	
5	0	0	0	0	493	509	195	0	39	21	
6	0	0	0	0	526	519	196	0	39	21	
7	0	0	0	0	496	505	195	0	39	21	
8	0	0	0	0	529	518	197	0	39	21	
9	0	0	0	0	493	504	195	0	39	21	
10	0	0	0	0	524	521	197	0	39	21	
11	0	0	0	0	492	509	195	57	39	21	
12	0	0	0	0	531	519	197	0	39	21	
13	0	0	0	0	487	508	196	0	39	21	
14	0	0	0	0	521	519	197	0	39	21	
15	0	0	0	0	494	507	196	0	39	21	
0	0	0	0	0	535	519	197	0	39	21	
1	0	0	0	0	492	511	196	0	39	21	
2	0	0	0	0	521	522	197	0	39	21	
3	0	0	0	0	492	509	196	212	39	21	
4	0	0	0	0	531	522	197	0	39	21	
5	0	0	0	0	492	509	196	0	39	21	
6	0	0	0	0	522	521	197	0	39	21	
7	0	0	0	0	498	510	196	0	39	21	
8	0	0	0	0	514	523	197	0	39	21	
9	0	0	0	0	494	508	196	1018	39	21	
10	0	0	0	0	524	521	197	0	39	21	
11	0	0	0	0	492	509	196	1018	39	21	
12	0	0	0	0	533	520	197	0	39	21	
13	0	0	0	0	487	509	196	0	39	21	
14	0	0	0	0	522	520	197	0	39	21	
15	0	0	0	0	491	509	196	0	39	21	
0	0	0	0	0	525	519	198	0	39	21	
1	0	0	0	0	492	506	197	1018	39	21	
2	0	0	0	0	531	520	198	0	39	21	
3	0	0	0	0	496	506	196	0	39	21	
4	0	0	0	0	525	518	198	0	39	21	
5	0	0	0	0	494	505	197	0	39	21	
6	0	0	0	0	529	520	198	0	39	21	
7	0	0	0	0	498	511	197	39	39	21	
8	0	0	0	0	528	521	198	0	39	21	
9	0	0	0	0	497	508	197	1018	39	21	
10	0	0	0	0	523	518	198	0	39	21	
11	0	0	0	0	488	510	197	34	39	21	
12	0	0	0	0	528	519	198	0	39	21	
13	0	0	0	0	495	508	197	0	39	21	
14	0	0	0	0	527	517	198	0	39	21	
15	0	0	0	0	496	510	197	0	39	21	
0	0	0	0	0	534	519	198	0	39	21	
1	0	0	0	0	494	510	198	1018	39	21	
2	0	0	0	0	530	520	198	0	39	21	
3	0	0	0	0	496	511	197	139	39	21	
4	0	0	0	0	536	520	198	0	39	21	
5	0	0	0	0	500	510	198	1018	39	21	
6	0	0	0	0	529	521	198	0	39	21	
7	0	0	0	0	493	510	197	0	39	21	
8	0	0	0	0	526	522	199	0	39	21	
9	0	0	0	0	498	509	198	0	39	21	
10	0	0	0	0	527	522	198	0	39	21	
11	0	0	0	0	489	507	198	0	39	21	
12	0	0	0	0	527	521	199	0	39	21	
13	0	0	0	0	491	510	198	990	39	21	
14	0	0	0	0	525	519	199	0	39	21	
15	0	0	0	0	496	509	198	463	39	21	
0	0	0	0	0	528	520	199	0	39	21	
1	0	0	0	0	497	507	198	1018	39	21	
2	0	0	0	0	527	521	199	0	39	21	
3	0	0	0	0	495	505	198	0	39	21	
4	0	0	0	0	526	520	199	0	39	21	
5	0	0	0	0	503	508	198	0	39	21	
6	0	0	0	0	529	521	199	0	39	21	
7	0	0	0	0	496	507	198	446	39	21	
8	0	0	0	0	530	523	199	0	39	21	
9	0	0	0	0	496	510	198	288	39	21	
10	0	0	0	0	530	521	199	0	39	21	
11	0	0	0	0	494	506	198	1018	39	21	
12	0	0	0	0	534	518	199	0	39	21	
13	0	0	0	0	487	508	198	1018	39	21	
14	0	0	0	0	528	519	199	0	39	21	
15	0	0	0	0	489	508	198	0	39	21	
0	0	0	0	0	531	521	199	0	39	21	
1	0	0	0	0	501	510	198	0	39	21	
2	0	0	0	0	525	520	199	0	39	21	
3	0	0	0	0	488	508	198	337	39	21	
4	0	0	0	0	532	521	199	0	39	21	
5	0	0	0	0	495	508	198	511	39	21	
6	0	0	0	0	535	522	199	0	39	21	
7	0	0	0	0	494	508	199	123	39	21	
8	0	0	0	0	534	524	199	0	39	21	
9	0	0	0	0	498	508	199	268	39	21	
10	0	0	0	0	528	520	199	0	39	21	
11	0	0	0	0	499	508	199	212	39	21	
12	0	0	0	0	527	520	200	0	39	21	
13	0	0	0	0	496	510	199	503	39	21	
14	0	0	0	0	529	521	200	0	39	21	
15	0	0	0	0	490	509	199	581	39	21	
0	0	0	0	0	532	524	200	0	39	21	
1	0	0	0	0	497	510	199	460	39	21	
2	0	0	0	0	527	521	200	0	39	21	
3	0	0	0	0	495	511	200	375	39	21	
4	0	0	0	0	527	520	201	0	39	21	
5	0	0	0	0	491	510	200	0	39	21	
6	0	0	0	0	530	521	201	0	39	21	
7	0	0	0	0	495	508	200	0	39	21	
8	0	0	0	0	529	519	201	0	39	21	
9	0	0	0	0	492	508	201	0	39	21	
10	0	0	0	0	536	516	202	0	39	21	
11	0	0	0	0	492	507	201	76	39	21	
12	0	0	0	0	536	522	202	0	39	21	
13	0	0	0	0	498	511	201	0	39	21	
14	0	0	0	0	531	522	202	0	39	21	
15	0	0	0	0	494	507	201	138	39	21	
0	0	0	0	0	529	521	203	0	39	21	
1	0	0	0	0	502	507	202	381	39	21	
2	0	0	0	0	526	519	203	0	39	21	
3	0	0	0	0	495	511	202	236	39	21	
4	0	0	0	0	528	518	204	0	39	21	
5	0	0	0	0	499	508	203	273	39	21	
6	0	0	0	0	526	518	204	0	39	21	
7	0	0	0	0	502	508	203	0	39	21	
8	0	0	0	0	534	518	204	0	39	21	
9	0	0	0	0	495	508	203	0	39	21	
10	0	0	0	0	527	522	204	0	39	21	
11	0	0	0	0	493	507	204	0	39	21	
12	0	0	0	0	536	523	205	0	39	21	
13	0	0	0	0	489	509	204	691	39	21	
14	0	0	0	0	530	519	205	0	39	21	
15	0	0	0	0	502	508	204	176	39	21	
0	0	0	0	0	527	522	206	0	39	21	
1	0	0	0	0	498	510	205	423	39	21	
2	0	0	0	0	528	524	206	0	39	21	
3	0	0	0	0	499	507	205	288	39	21	
4	0	0	0	0	533	524	206	0	39	21	
5	0	0	0	0	492	510	206	0	39	21	
6	0	0	0	0	531	520	207	0	39	21	
7	0	0	0	0	489	508	206	1018	39	21	
8	0	0	0	0	526	525	207	0	39	21	
9	0	0	0	0	494	511	206	127	39	21	
10	0	0	0	0	531	517	207	0	39	21	
11	0	0	0	0	495	508	207	23	39	21	
12	0	0	0	0	532	520	207	0	39	21	
13	0	0	0	0	499	508	207	471	39	21	
14	0	0	0	0	539	519	208	0	39	21	
15	0	0	0	0	497	508	207	0	39	21	
0	0	0	0	0	524	520	208	0	39	21	
1	0	0	0	0	493	509	207	133	39	21	
2	0	0	0	0	536	520	208	0	39	21	
3	0	0	0	0	492	511	207	1018	39	21	
4	0	0	0	0	529	519	208	0	39	21	
5	0	0	0	0	496	511	207	0	39	21	
6	0	0	0	0	536	521	208	0	39	21	
7	0	0	0	0	492	509	207	0	39	21	
8	0	0	0	0	535	520	208	0	39	21	
9	0	0	0	0	495	506	207	0	39	21	
10	0	0	0	0	534	520	209	0	39	21	
11	0	0	0	0	499	510	208	206	39	21	
12	0	0	0	0	535	518	209	0	39	21	
13	0	0	0	0	497	510	208	0	39	21	
14	0	0	0	0	532	524	209	0	39	21	
15	0	0	0	0	490	511	208	914	39	21	
0	0	0	0	0	534	517	209	0	39	21	
1	0	0	0	0	495	510	208	0	39	21	
2	0	0	0	0	533	518	209	0	39	21	
3	0	0	0	0	490	504	209	0	39	21	
4	0	0	0	0	537	521	210	0	39	21	
5	0	0	0	0	492	511	209	424	39	21	
6	0	0	0	0	532	522	210	0	39	21	
7	0	0	0	0	495	512	209	220	39	21	
8	0	0	0	0	533	519	210	0	39	21	
9	0	0	0	0	496	505	209	152	39	21	
10	0	0	0	0	540	520	210	0	39	21	
11	0	0	0	0	495	507	209	0	39	21	
12	0	0	0	0	528	519	210	0	39	21	
13	0	0	0	0	495	508	209	726	39	21	
14	0	0	0	0	534	518	210	0	39	21	
15	0	0	0	0	497	508	209	0	39	21	
0	0	0	0	0	540	522	210	0	39	21	
1	0	0	0	0	494	507	209	484	39	21	
2	0	0	0	0	544	519	210	0	39	21	
3	0	0	0	0	494	508	209	0	39	21	
4	0	0	0	0	532	520	210	0	39	21	
5	0	0	0	0	502	509	209	108	39	21	
6	0	0	0	0	538	520	210	0	39	21	
7	0	0	0	0	494	508	209	1018	39	21	
8	0	0	0	0	533	520	211	0	39	21	
9	0	0	0	0	499	510	209	0	39	21	
10	0	0	0	0	535	520	211	0	39	21	
11	0	0	0	0	498	508	210	1018	39	21	
12	0	0	0	0	533	521	211	0	39	21	
13	0	0	0	0	496	509	210	1018	39	21	
14	0	0	0	0	536	522	211	0	39	21	
15	0	0	0	0	493	510	210	0	39	21	
0	0	0	0	0	541	519	211	0	39	21	
1	0	0	0	0	495	507	210	58	39	21	
2	0	0	0	0	537	519	211	0	39	21	
3	0	0	0	0	494	508	210	120	39	21	
4	0	0	0	0	545	521	211	0	39	21	
5	0	0	0	0	496	509	211	0	39	21	
6	0	0	0	0	536	516	211	0	39	21	
7	0	0	0	0	494	507	211	0	39	21	
8	0	0	0	0	532	520	212	0	39	21	
9	0	0	0	0	500	510	211	293	39	21	
10	0	0	0	0	538	519	212	0	39	21	
11	0	0	0	0	506	509	211	0	39	21	
12	0	0	0	0	543	517	212	0	39	21	
13	0	0	0	0	497	508	211	0	39	21	
14	0	0	0	0	539	518	212	0	39	21	
15	0	0	0	0	502	507	212	303	39	21	
0	0	0	0	0	537	520	213	0	39	21	
1	0	0	0	0	499	508	212	0	39	21	
2	0	0	0	0	539	521	213	0	39	21	
3	0	0	0	0	497	510	212	0	39	21	
4	0	0	0	0	541	522	213	0	39	21	
5	0	0	0	0	502	508	212	0	39	21	
6	0	0	0	0	544	522	214	0	39	21	
7	0	0	0	0	499	506	213	1018	39	21	
8	0	0	0	0	541	520	214	0	39	21	
9	0	0	0	0	499	510	213	495	39	21	
10	0	0	0	0	540	520	214	0	39	21	
11	0	0	0	0	492	513	214	0	39	21	
12	0	0	0	0	541	520	215	0	39	21	
13	0	0	0	0	498	510	214	0	39	21	
14	0	0	0	0	549	519	215	0	39	21	
15	0	0	0	0	504	509	214	0	39	21	
0	0	0	0	0	547	520	216	0	39	21	
1	0	0	0	0	500	508	215	240	39	21	
2	0	0	0	0	550	519	216	0	39	21	
3	0	0	0	0	497	510	215	546	39	21	
4	0	0	0	0	545	519	216	0	39	21	
5	0	0	0	0	497	506	216	184	39	21	
6	0	0	0	0	546	519	216	0	39	21	
7	0	0	0	0	502	508	216	185	39	21	
8	0	0	0	0	551	519	217	0	39	21	
9	0	0	0	0	499	507	216	0	39	21	
10	0	0	0	0	544	519	217	0	39	21	
11	0	0	0	0	503	508	216	585	39	21	
12	0	0	0	0	550	520	217	0	39	21	
13	0	0	0	0	497	508	217	1018	39	21	
14	0	0	0	0	548	521	218	0	39	21	
15	0	0	0	0	501	511	217	0	39	21	
0	0	0	0	0	547	519	218	0	39	21	
1	0	0	0	0	501	508	217	385	39	21	
2	0	0	0	0	544	519	218	0	39	21	
3	0	0	0	0	503	511	218	1018	39	21	
4	0	0	0	0	548	520	219	0	39	21	
5	0	0	0	0	498	512	218	558	39	21	
6	0	0	0	0	550	519	219	0	39	21	
7	0	0	0	0	499	505	218	0	39	21	
8	0	0	0	0	546	517	220	0	39	21	
9	0	0	0	0	504	507	219	280	39	21	
10	0	0	0	0	553	517	220	0	39	21	
11	0	0	0	0	502	507	219	0	39	21	
12	0	0	0	0	551	519	220	0	39	21	
13	0	0	0	0	504	509	219	247	39	21	
14	0	0	0	0	548	522	220	0	39	21	
15	0	0	0	0	503	510	220	465	39	21	
0	0	0	0	0	544	518	221	0	39	21	
1	0	0	0	0	500	510	220	394	39	21	
2	0	0	0	0	542	521	221	0	39	21	
3	0	0	0	0	500	510	220	66	39	21	
4	0	0	0	0	551	519	222	0	39	21	
5	0	0	0	0	504	505	221	429	39	21	
6	0	0	0	0	551	518	222	0	39	21	
7	0	0	0	0	499	509	221	1018	39	21	
8	0	0	0	0	545	522	222	0	39	21	
9	0	0	0	0	498	507	221	148	39	21	
10	0	0	0	0	548	520	222	0	39	21	
11	0	0	0	0	505	510	222	1018	39	21	
12	0	0	0	0	551	521	223	0	39	21	
13	0	0	0	0	507	511	222	572	39	21	
14	0	0	0	0	555	522	223	0	39	21	
15	0	0	0	0	505	507	222	1018	39	21	
0	0	0	0	0	553	520	223	0	39	21	
1	0	0	0	0	506	509	223	1018	39	21	
2	0	0	0	0	548	521	224	0	39	21	
3	0	0	0	0	504	508	223	1018	39	21	
4	0	0	0	0	554	521	224	0	39	21	
5	0	0	0	0	504	508	223	69	39	21	
6	0	0	0	0	549	522	224	0	39	21	
7	0	0	0	0	505	511	224	1018	39	21	
8	0	0	0	0	553	519	225	0	39	21	
9	0	0	0	0	505	510	224	263	39	21	
10	0	0	0	0	552	518	225	0	39	21	
11	0	0	0	0	502	508	224	225	39	21	
12	0	0	0	0	556	519	225	0	39	21	
13	0	0	0	0	506	508	224	358	39	21	
14	0	0	0	0	553	518	225	0	39	21	
15	0	0	0	0	501	506	225	0	39	21	
0	0	0	0	0	553	520	226	0	39	21	
1	0	0	0	0	501	507	225	427	39	21	
2	0	0	0	0	547	520	226	0	39	21	
3	0	0	0	0	505	507	225	359	39	21	
4	0	0	0	0	553	523	226	0	39	21	
5	0	0	0	0	501	509	225	1018	39	21	
6	0	0	0	0	561	521	226	0	39	21	
7	0	0	0	0	506	508	225	0	39	21	
8	0	0	0	0	559	520	227	0	39	21	
9	0	0	0	0	509	510	225	570	39	21	
10	0	0	0	0	554	518	226	0	39	21	
11	0	0	0	0	505	511	226	239	39	21	
12	0	0	0	0	551	518	227	0	39	21	
13	0	0	0	0	507	508	226	335	39	21	
14	0	0	0	0	555	519	227	0	39	21	
15	0	0	0	0	502	509	226	376	39	21	
0	0	0	0	0	556	523	227	0	39	21	
1	0	0	0	0	510	508	226	470	39	21	
2	0	0	0	0	559	519	227	0	39	21	
3	0	0	0	0	505	510	226	238	39	21	
4	0	0	0	0	560	520	227	0	39	21	
5	0	0	0	0	509	512	226	1018	39	21	
6	0	0	0	0	555	521	227	0	39	21	
7	0	0	0	0	506	512	226	381	39	21	
8	0	0	0	0	555	518	227	0	39	21	
9	0	0	0	0	507	510	226	77	39	21	
10	0	0	0	0	555	518	227	0	39	21	
11	0	0	0	0	508	512	226	1018	39	21	
12	0	0	0	0	551	517	227	0	39	21	
13	0	0	0	0	505	507	226	1018	39	21	
14	0	0	0	0	564	520	227	0	39	21	
15	0	0	0	0	510	508	226	1018	39	21	
0	0	0	0	0	557	520	227	0	39	21	
1	0	0	0	0	503	505	226	0	39	21	
2	0	0	0	0	553	517	227	0	39	21	
3	0	0	0	0	506	510	226	501	39	21	
4	0	0	0	0	556	518	227	0	39	21	
5	0	0	0	0	499	509	227	1018	39	21	
6	0	0	0	0	559	518	227	0	39	21	
7	0	0	0	0	511	507	226	1018	39	21	
8	0	0	0	0	553	518	227	0	39	21	
9	0	0	0	0	512	510	226	184	39	21	
10	0	0	0	0	558	521	227	0	39	21	
11	0	0	0	0	508	512	226	531	39	21	
12	0	0	0	0	559	519	227	0	39	21	
13	0	0	0	0	510	508	226	113	39	21	
14	0	0	0	0	561	519	227	0	39	21	
15	0	0	0	0	504	509	226	1018	39	21	
0	0	0	0	0	564	517	227	0	39	21	
1	0	0	0	0	510	508	226	400	39	21	
2	0	0	0	0	561	519	227	0	39	21	
3	0	0	0	0	507	513	226	1018	39	21	
4	0	0	0	0	557	522	227	0	39	21	
5	0	0	0	0	501	509	226	315	39	21	
6	0	0	0	0	556	519	227	0	39	21	
7	0	0	0	0	503	509	226	715	39	21	
8	0	0	0	0	556	520	227	0	39	21	
9	0	0	0	0	505	511	226	236	39	21	
10	0	0	0	0	564	522	227	0	39	21	
11	0	0	0	0	510	513	226	1018	39	21	
12	0	0	0	0	558	519	227	0	39	21	
13	0	0	0	0	507	510	226	517	39	21	
14	0	0	0	0	553	520	227	0	39	21	
15	0	0	0	0	507	508	226	1018	39	21	
0	0	0	0	0	567	517	227	0	39	21	
1	0	0	0	0	502	508	226	1018	39	21	
2	0	0	0	0	563	517	227	0	39	21	
3	0	0	0	0	503	510	226	1018	39	21	
4	0	0	0	0	563	520	227	0	39	21	
5	0	0	0	0	506	509	226	1018	39	21	
6	0	0	0	0	561	521	226	0	39	21	
7	0	0	0	0	510	512	225	1018	39	21	
8	0	0	0	0	565	518	226	0	39	21	
9	0	0	0	0	514	508	225	347	39	21	
10	0	0	0	0	560	519	226	0	39	21	
11	0	0	0	0	509	508	225	246	39	21	
12	0	0	0	0	563	521	226	0	39	21	
13	0	0	0	0	505	508	225	1018	39	21	
14	0	0	0	0	564	516	226	0	39	21	
15	0	0	0	0	502	509	225	167	39	21	
0	0	0	0	0	559	519	226	0	39	21	
1	0	0	0	0	509	509	225	0	39	21	
2	0	0	0	0	563	519	226	0	39	21	
3	0	0	0	0	508	508	225	1018	39	21	
4	0	0	0	0	560	518	226	0	39	21	
5	0	0	0	0	507	508	225	1018	39	21	
6	0	0	0	0	556	522	225	0	39	21	
7	0	0	0	0	515	511	225	463	39	21	
8	0	0	0	0	559	520	225	0	39	21	
9	0	0	0	0	506	510	224	492	39	21	
10	0	0	0	0	566	517	225	0	39	21	
11	0	0	0	0	511	508	224	94	39	21	
12	0	0	0	0	567	523	225	0	39	21	
13	0	0	0	0	507	513	224	1018	39	21	
14	0	0	0	0	560	520	225	0	39	21	
15	0	0	0	0	507	512	224	145	39	21	
0	0	0	0	0	567	514	225	0	39	21	
1	0	0	0	0	506	508	224	277	39	21	
2	0	0	0	0	568	519	225	0	39	21	
3	0	0	0	0	511	509	224	563	39	21	
4	0	0	0	0	569	518	225	0	39	21	
5	0	0	0	0	507	508	224	513	39	21	
6	0	0	0	0	561	518	225	0	39	21	
7	0	0	0	0	507	508	224	1018	39	21	
8	0	0	0	0	567	519	224	0	39	21	
9	0	0	0	0	509	508	224	1018	39	21	
10	0	0	0	0	558	520	224	0	39	21	
11	0	0	0	0	505	508	224	1018	39	21	
12	0	0	0	0	565	516	224	0	39	21	
13	0	0	0	0	504	511	223	371	39	21	
14	0	0	0	0	557	518	224	0	39	21	
15	0	0	0	0	500	515	223	1018	39	21	
0	0	0	0	0	564	519	224	0	39	21	
1	0	0	0	0	506	509	223	19	39	21	
2	0	0	0	0	568	519	224	0	39	21	
3	0	0	0	0	508	505	223	89	39	21	
4	0	0	0	0	562	518	224	0	39	21	
5	0	0	0	0	505	509	223	1018	39	21	
6	0	0	0	0	564	519	224	0	39	21	
7	0	0	0	0	512	511	223	391	39	21	
8	0	0	0	0	567	519	224	0	39	21	
9	0	0	0	0	509	510	223	1018	39	21	
10	0	0	0	0	563	516	223	0	39	21	
11	0	0	0	0	508	509	223	1018	39	21	
12	0	0	0	0	565	521	223	0	39	21	
13	0	0	0	0	508	510	223	172	39	21	
14	0	0	0	0	564	517	223	0	39	21	
15	0	0	0	0	511	512	222	330	39	21	
0	0	0	0	0	568	518	223	0	39	21	
1	0	0	0	0	509	510	222	498	39	21	
2	0	0	0	0	564	518	223	0	39	21	
3	0	0	0	0	508	508	222	1018	39	21	
4	0	0	0	0	568	519	223	0	39	21	
5	0	0	0	0	508	508	221	1018	39	21	
6	0	0	0	0	562	518	222	0	39	21	
7	0	0	0	0	506	509	220	268	39	21	
8	0	0	0	0	567	519	221	0	39	21	
9	0	0	0	0	507	509	220	290	39	21	
10	0	0	0	0	556	520	221	0	39	21	
11	0	0	0	0	504	508	220	649	39	21	
12	0	0	0	0	568	518	220	0	39	21	
13	0	0	0	0	505	509	219	1018	39	21	
14	0	0	0	0	566	518	220	0	39	21	
15	0	0	0	0	502	508	218	479	39	21	
0	0	0	0	0	565	516	219	0	39	21	
1	0	0	0	0	515	509	218	1018	39	21	
2	0	0	0	0	568	516	218	0	39	21	
3	0	0	0	0	511	508	217	1018	39	21	
4	0	0	0	0	566	517	218	0	39	21	
5	0	0	0	0	504	509	216	120	39	21	
6	0	0	0	0	562	520	217	0	39	21	
7	0	0	0	0	507	509	216	1018	39	21	
8	0	0	0	0	562	520	216	0	39	21	
9	0	0	0	0	514	513	216	1018	39	21	
10	0	0	0	0	575	519	216	0	39	21	
11	0	0	0	0	505	509	215	1018	39	21	
12	0	0	0	0	570	517	216	0	39	21	
13	0	0	0	0	511	510	214	1018	39	21	
14	0	0	0	0	571	515	215	0	39	21	
15	0	0	0	0	506	508	214	500	39	21	
0	0	0	0	0	565	519	214	0	39	21	
1	0	0	0	0	508	513	212	1018	39	21	
2	0	0	0	0	565	515	212	0	39	21	
3	0	0	0	0	505	511	211	1018	39	21	
4	0	0	0	0	563	518	211	0	39	21	
5	0	0	0	0	509	508	209	1018	39	21	
6	0	0	0	0	558	516	209	0	39	21	
7	0	0	0	0	505	510	208	1018	39	21	
8	0	0	0	0	564	518	208	0	39	21	
9	0	0	0	0	500	511	207	1018	39	21	
10	0	0	0	0	568	519	207	0	39	21	
11	0	0	0	0	509	510	205	448	39	21	
12	0	0	0	0	561	517	206	0	39	21	
13	0	0	0	0	511	507	204	1018	39	21	
14	0	0	0	0	566	517	204	0	39	21	
15	0	0	0	0	509	508	203	1018	39	21	
0	0	0	0	0	565	517	203	0	39	21	
1	0	0	0	0	501	508	202	1018	39	21	
2	0	0	0	0	568	519	203	0	39	21	
3	0	0	0	0	508	507	201	1018	39	21	
4	0	0	0	0	564	518	202	0	39	21	
5	0	0	0	0	505	508	201	1018	39	21	
6	0	0	0	0	570	516	201	0	39	21	
7	0	0	0	0	513	512	200	340	39	21	
8	0	0	0	0	576	520	201	0	39	21	
9	0	0	0	0	507	508	200	1018	39	21	
10	0	0	0	0	569	520	200	0	39	21	
11	0	0	0	0	506	510	200	1018	39	21	
12	0	0	0	0	563	516	200	0	39	21	
13	0	0	0	0	508	511	199	539	39	21	
14	0	0	0	0	563	517	200	0	39	21	
15	0	0	0	0	507	506	200	1018	39	21	
0	0	0	0	0	565	516	201	0	39	21	
1	0	0	0	0	504	509	200	1018	39	21	
2	0	0	0	0	562	517	201	0	39	21	
3	0	0	0	0	503	511	200	1018	39	21	
4	0	0	0	0	560	520	201	0	39	21	
5	0	0	0	0	511	507	200	486	39	21	
6	0	0	0	0	564	519	201	0	39	21	
7	0	0	0	0	504	508	200	1018	39	21	
8	0	0	0	0	567	521	201	0	39	21	
9	0	0	0	0	503	510	200	574	39	21	
10	0	0	0	0	559	518	200	0	39	21	
11	0	0	0	0	502	512	199	1018	39	21	
12	0	0	0	0	565	520	200	0	39	21	
13	0	0	0	0	508	508	199	1018	39	21	
14	0	0	0	0	564	516	199	0	39	21	
15	0	0	0	0	514	508	198	320	39	21	
0	0	0	0	0	569	518	199	0	39	21	
1	0	0	0	0	511	507	198	1018	39	21	
2	0	0	0	0	563	517	198	0	39	21	
3	0	0	0	0	503	510	197	1018	39	21	
4	0	0	0	0	568	517	197	0	39	21	
5	0	0	0	0	511	510	196	1018	39	21	
6	0	0	0	0	564	519	196	0	39	21	
7	0	0	0	0	506	509	195	1018	39	21	
8	0	0	0	0	566	517	195	0	39	21	
9	0	0	0	0	510	512	194	1018	39	21	
10	0	0	0	0	573	516	194	0	39	21	
11	0	0	0	0	503	512	193	1018	39	21	
12	0	0	0	0	563	521	194	0	39	21	
13	0	0	0	0	502	511	192	1018	39	21	
14	0	0	0	0	566	516	193	0	39	21	
15	0	0	0	0	505	507	192	1018	39	21	
0	0	0	0	0	567	517	192	0	39	21	
1	0	0	0	0	505	512	191	1018	39	21	
2	0	0	0	0	571	517	192	0	39	21	
3	0	0	0	0	510	511	191	392	39	21	
4	0	0	0	0	566	521	191	0	39	21	
5	0	0	0	0	510	510	190	1018	39	21	
6	0	0	0	0	568	517	191	0	39	21	
7	0	0	0	0	514	509	190	607	39	21	
8	0	0	0	0	568	516	190	0	39	21	
9	0	0	0	0	501	507	189	1018	39	21	
10	0	0	0	0	563	516	190	0	39	21	
11	0	0	0	0	508	509	189	1018	39	21	
12	0	0	0	0	568	516	190	0	39	21	
13	0	0	0	0	500	508	189	1018	39	21	
14	0	0	0	0	574	519	189	0	39	21	
15	0	0	0	0	508	511	188	1018	39	21	
0	0	0	0	0	565	519	189	0	39	21	
1	0	0	0	0	504	510	188	497	39	21	
2	0	0	0	0	567	519	189	0	39	21	
3	0	0	0	0	510	507	188	1018	39	21	
4	0	0	0	0	563	519	189	0	39	21	
5	0	0	0	0	504	508	188	833	39	21	
6	0	0	0	0	568	519	188	0	39	21	
7	0	0	0	0	507	511	188	1018	39	21	
8	0	0	0	0	569	520	188	0	39	21	
9	0	0	0	0	507	515	187	165	39	21	
10	0	0	0	0	572	518	188	0	39	21	
11	0	0	0	0	514	508	187	1018	39	21	
12	0	0	0	0	563	517	188	0	39	21	
13	0	0	0	0	506	508	187	1018	39	21	
14	0	0	0	0	565	519	188	0	39	21	
15	0	0	0	0	518	510	187	1018	39	21	
0	0	0	0	0	568	514	187	0	39	21	
1	0	0	0	0	509	509	187	1018	39	21	
2	0	0	0	0	563	515	187	0	39	21	
3	0	0	0	0	504	512	186	1018	39	21	
4	0	0	0	0	568	514	187	0	39	21	
5	0	0	0	0	513	508	186	1018	39	21	
6	0	0	0	0	567	516	187	0	39	21	
7	0	0	0	0	501	510	186	1018	39	21	
8	0	0	0	0	567	519	187	0	39	21	
9	0	0	0	0	505	510	187	1018	39	21	
10	0	0	0	0	570	516	187	0	39	21	
11	0	0	0	0	505	509	187	1018	39	21	
12	0	0	0	0	569	516	188	0	39	21	
13	0	0	0	0	503	508	188	1018	39	21	
14	0	0	0	0	566	515	189	0	39	21	
15	0	0	0	0	508	508	189	1018	39	21	
0	0	0	0	0	568	511	191	0	39	21	
1	0	0	0	0	508	510	191	1018	39	21	
2	0	0	0	0	572	519	193	0	39	21	
3	0	0	0	0	500	510	193	1018	39	21	
4	0	0	0	0	567	516	195	0	39	21	
5	0	0	0	0	503	510	196	1018	39	21	
6	0	0	0	0	570	518	198	0	39	21	
7	0	0	0	0	511	512	199	1018	39	21	
8	0	0	0	0	573	517	201	0	39	21	
9	0	0	0	0	508	508	201	1018	39	21	
10	0	0	0	0	568	517	203	0	39	21	
11	0	0	0	0	505	508	203	1018	39	21	
12	0	0	0	0	569	518	205	0	39	21	
13	0	0	0	0	510	508	205	1018	39	21	
14	0	0	0	0	568	516	207	0	39	21	
15	0	0	0	0	508	508	207	1018	39	21	
0	0	0	0	0	569	518	208	0	39	21	
1	0	0	0	0	499	510	208	1018	39	21	
2	0	0	0	0	572	518	209	0	39	21	
3	0	0	0	0	505	512	209	1018	39	21	
4	0	0	0	0	568	517	211	0	39	21	
5	0	0	0	0	506	510	210	1018	39	21	
6	0	0	0	0	571	516	211	0	39	21	
7	0	0	0	0	504	512	211	1018	39	21	
8	0	0	0	0	568	515	212	0	39	21	
9	0	0	0	0	508	510	212	1018	39	21	
10	0	0	0	0	568	514	213	0	39	21	
11	0	0	0	0	513	508	213	1018	39	21	
12	0	0	0	0	572	519	214	0	39	21	
13	0	0	0	0	508	509	214	1018	39	21	
14	0	0	0	0	574	517	215	0	39	21	
15	0	0	0	0	503	510	215	1018	39	21	
0	0	0	0	0	568	515	216	0	39	21	
1	0	0	0	0	508	510	215	1018	39	21	
2	0	0	0	0	565	519	216	0	39	21	
3	0	0	0	0	498	511	216	1018	39	21	
4	0	0	0	0	572	518	217	0	39	21	
5	0	0	0	0	508	511	216	1018	39	21	
6	0	0	0	0	566	516	217	0	39	21	
7	0	0	0	0	499	511	217	1018	39	21	
8	0	0	0	0	570	515	218	0	39	21	
9	0	0	0	0	508	514	217	1018	39	21	
10	0	0	0	0	574	518	218	0	39	21	
11	0	0	0	0	502	511	217	1018	39	21	
12	0	0	0	0	567	516	219	0	39	21	
13	0	0	0	0	504	507	218	1018	39	21	
14	0	0	0	0	571	516	219	0	39	21	
15	0	0	0	0	501	510	218	868	39	21	
0	0	0	0	0	571	516	219	0	39	21	
1	0	0	0	0	509	510	218	1018	39	21	
2	0	0	0	0	575	515	219	0	39	21	
3	0	0	0	0	512	509	218	1018	39	21	
4	0	0	0	0	568	518	219	0	39	21	
5	0	0	0	0	509	512	219	1018	39	21	
6	0	0	0	0	572	517	219	0	39	21	
7	0	0	0	0	506	512	219	1018	39	21	
8	0	0	0	0	569	517	220	0	39	21	
9	0	0	0	0	506	509	219	1018	39	21	
10	0	0	0	0	583	516	220	0	39	21	
11	0	0	0	0	507	508	219	1018	39	21	
12	0	0	0	0	569	515	220	0	39	21	
13	0	0	0	0	508	510	219	1018	39	21	
14	0	0	0	0	578	514	220	0	39	21	
15	0	0	0	0	507	509	219	1018	39	21	
0	0	0	0	0	573	518	220	0	39	21	
1	0	0	0	0	508	507	219	1018	39	21	
2	0	0	0	0	569	517	220	0	39	21	
3	0	0	0	0	504	511	219	1018	39	21	
4	0	0	0	0	576	516	220	0	39	21	
5	0	0	0	0	511	508	220	1018	39	21	
6	0	0	0	0	572	518	220	0	39	21	
7	0	0	0	0	503	511	220	1018	39	21	
8	0	0	0	0	574	516	220	0	39	21	
9	0	0	0	0	507	510	220	1018	39	21	
10	0	0	0	0	572	515	220	0	39	21	
11	0	0	0	0	507	509	220	1018	39	21	
12	0	0	0	0	575	518	220	0	39	21	
13	0	0	0	0	504	508	220	1018	39	21	
14	0	0	0	0	574	514	220	0	39	21	
15	0	0	0	0	513	508	219	1018	39	21	
0	0	0	0	0	571	518	220	0	39	21	
1	0	0	0	0	504	509	219	1018	39	21	
2	0	0	0	0	573	515	220	0	39	21	
3	0	0	0	0	508	510	219	1018	39	21	
4	0	0	0	0	574	516	220	0	39	21	
5	0	0	0	0	515	510	219	1018	39	21	
6	0	0	0	0	573	517	220	0	39	21	
7	0	0	0	0	513	512	219	1018	39	21	
8	0	0	0	0	571	515	220	0	39	21	
9	0	0	0	0	511	508	219	1018	39	21	
10	0	0	0	0	578	514	220	0	39	21	
11	0	0	0	0	511	512	219	1018	39	21	
12	0	0	0	0	574	516	220	0	39	21	
13	0	0	0	0	506	511	219	1018	39	21	
14	0	0	0	0	575	516	219	0	39	21	
15	0	0	0	0	508	511	219	1018	39	21	
0	0	0	0	0	579	515	219	0	39	21	
1	0	0	0	0	510	508	218	1018	39	21	
2	0	0	0	0	578	515	219	0	39	21	
3	0	0	0	0	504	510	218	1018	39	21	
4	0	0	0	0	579	517	219	0	39	21	
5	0	0	0	0	511	511	218	1018	39	21	
6	0	0	0	0	580	515	219	0	39	21	
7	0	0	0	0	515	510	218	1018	39	21	
8	0	0	0	0	577	516	219	0	39	21	
9	0	0	0	0	504	511	217	1018	39	21	
10	0	0	0	0	574	516	218	0	39	21	
11	0	0	0	0	498	509	217	1018	39	21	
12	0	0	0	0	578	516	218	0	39	21	
13	0	0	0	0	507	511	217	1018	39	21	
14	0	0	0	0	577	517	218	0	39	21	
15	0	0	0	0	509	510	217	1018	39	21	
0	0	0	0	0	576	516	218	0	39	21	
1	0	0	0	0	507	509	217	1018	39	21	
2	0	0	0	0	581	515	218	0	39	21	
3	0	0	0	0	504	510	217	1018	39	21	
4	0	0	0	0	579	513	218	0	39	21	
5	0	0	0	0	511	513	217	1018	39	21	
6	0	0	0	0	582	518	218	0	39	21	
7	0	0	0	0	505	510	217	1018	39	21	
8	0	0	0	0	571	512	218	0	39	21	
9	0	0	0	0	511	511	217	1018	39	21	
10	0	0	0	0	582	515	217	0	39	21	
11	0	0	0	0	508	510	217	1018	39	21	
12	0	0	0	0	575	517	217	0	39	21	
13	0	0	0	0	499	508	216	1018	39	21	
14	0	0	0	0	580	517	217	0	39	21	
15	0	0	0	0	512	511	216	1018	39	21	
0	0	0	0	0	577	512	217	0	39	21	
1	0	0	0	0	512	511	216	1018	39	21	
2	0	0	0	0	582	513	217	0	39	21	
3	0	0	0	0	512	508	217	1018	39	21	
4	0	0	0	0	576	516	218	0	39	21	
5	0	0	0	0	511	508	217	1018	39	21	
6	0	0	0	0	578	512	217	0	39	21	
7	0	0	0	0	508	512	217	1018	39	21	
8	0	0	0	0	573	516	218	0	39	21	
9	0	0	0	0	514	512	217	1018	39	21	
10	0	0	0	0	573	515	218	0	39	21	
11	0	0	0	0	511	509	217	1018	39	21	
12	0	0	0	0	580	512	218	0	39	21	
13	0	0	0	0	503	509	217	1018	39	21	
14	0	0	0	0	580	514	218	0	39	21	
15	0	0	0	0	505	511	217	1018	39	21	
0	0	0	0	0	578	515	218	0	39	21	
1	0	0	0	0	503	510	217	1018	39	21	
2	0	0	0	0	579	515	218	0	39	21	
3	0	0	0	0	508	512	217	1018	39	21	
4	0	0	0	0	575	515	218	0	39	21	
5	0	0	0	0	508	510	216	1018	39	21	
6	0	0	0	0	570	515	217	0	39	21	
7	0	0	0	0	506	510	216	1018	39	21	
8	0	0	0	0	580	516	217	0	39	21	
9	0	0	0	0	513	513	216	1018	39	21	
10	0	0	0	0	581	513	217	0	39	21	
11	0	0	0	0	508	511	216	1018	39	21	
12	0	0	0	0	585	519	217	0	39	21	
13	0	0	0	0	507	509	216	1018	39	21	
14	0	0	0	0	591	513	217	0	39	21	
15	0	0	0	0	503	508	216	1018	39	21	
0	0	0	0	0	583	513	217	0	39	21	
1	0	0	0	0	511	511	216	1018	39	21	
2	0	0	0	0	582	515	216	0	39	21	
3	0	0	0	0	509	508	216	1018	39	21	
4	0	0	0	0	581	514	216	0	39	21	
5	0	0	0	0	514	507	215	1018	39	21	
6	0	0	0	0	586	516	216	0	39	21	
7	0	0	0	0	515	511	215	1018	39	21	
8	0	0	0	0	584	515	216	0	39	21	
9	0	0	0	0	510	507	215	1018	39	21	
10	0	0	0	0	583	516	216	0	39	21	
11	0	0	0	0	507	511	215	1018	39	21	
12	0	0	0	0	580	513	216	0	39	21	
13	0	0	0	0	509	509	215	1018	39	21	
14	0	0	0	0	582	513	216	0	39	21	
15	0	0	0	0	510	512	215	1018	39	21	
0	0	0	0	0	584	515	216	0	39	21	
1	0	0	0	0	511	511	215	1018	39	21	
2	0	0	0	0	587	515	215	0	39	21	
3	0	0	0	0	513	512	214	1018	39	21	
4	0	0	0	0	574	516	215	0	39	21	
5	0	0	0	0	510	511	214	1018	39	21	
6	0	0	0	0	587	515	214	0	39	21	
7	0	0	0	0	507	510	214	1018	39	21	
8	0	0	0	0	580	514	215	0	39	21	
9	0	0	0	0	513	511	214	1018	39	21	
10	0	0	0	0	581	516	215	0	39	21	
11	0	0	0	0	509	508	214	1018	39	21	
12	0	0	0	0	588	516	215	0	39	21	
13	0	0	0	0	508	511	214	1018	39	21	
14	0	0	0	0	583	512	215	0	39	21	
15	0	0	0	0	509	508	214	1018	39	21	
0	0	0	0	0	589	511	215	0	39	21	
1	0	0	0	0	513	510	215	1018	39	21	
2	0	0	0	0	581	516	216	0	39	21	
3	0	0	0	0	503	509	215	1018	39	21	
4	0	0	0	0	586	513	216	0	39	21	
5	0	0	0	0	513	512	215	1018	39	21	
6	0	0	0	0	588	513	216	0	39	21	
7	0	0	0	0	511	510	215	1018	39	21	
8	0	0	0	0	584	516	216	0	39	21	
9	0	0	0	0	509	511	215	1018	39	21	
10	0	0	0	0	586	513	216	0	39	21	
11	0	0	0	0	508	509	215	1018	39	21	
12	0	0	0	0	581	511	216	0	39	21	
13	0	0	0	0	508	513	215	1018	39	21	
14	0	0	0	0	590	513	216	0	39	21	
15	0	0	0	0	514	508	215	1018	39	21	
0	0	0	0	0	585	511	216	0	39	21	
1	0	0	0	0	516	509	216	1018	39	21	
2	0	0	0	0	588	512	216	0	39	21	
3	0	0	0	0	507	511	216	1018	39	21	
4	0	0	0	0	585	514	216	0	39	21	
5	0	0	0	0	504	511	216	1018	39	21	
6	0	0	0	0	579	516	217	0	39	21	
7	0	0	0	0	511	509	216	1018	39	21	
8	0	0	0	0	584	514	217	0	39	21	
9	0	0	0	0	504	512	216	1018	39	21	
10	0	0	0	0	582	514	217	0	39	21	
11	0	0	0	0	510	511	216	1018	39	21	
12	0	0	0	0	583	512	217	0	39	21	
13	0	0	0	0	509	509	216	1018	39	21	
14	0	0	0	0	583	514	217	0	39	21	
15	0	0	0	0	508	513	216	1018	39	21	
0	0	0	0	0	588	513	217	0	39	21	
1	0	0	0	0	505	511	217	1018	39	21	
2	0	0	0	0	592	515	218	0	39	21	
3	0	0	0	0	511	511	217	1018	39	21	
4	0	0	0	0	588	513	218	0	39	21	
5	0	0	0	0	512	511	217	1018	39	21	
6	0	0	0	0	585	513	219	0	39	21	
7	0	0	0	0	510	511	217	1018	39	21	
8	0	0	0	0	583	513	219	0	39	21	
9	0	0	0	0	504	510	217	1018	39	21	
10	0	0	0	0	585	512	218	0	39	21	
11	0	0	0	0	504	508	218	1018	39	21	
12	0	0	0	0	591	514	219	0	39	21	
13	0	0	0	0	512	508	218	1018	39	21	
14	0	0	0	0	595	510	219	0	39	21	
15	0	0	0	0	507	509	218	1018	39	21	
0	0	0	0	0	579	511	219	0	39	21	
1	0	0	0	0	506	510	218	1018	39	21	
2	0	0	0	0	590	514	220	0	39	21	
3	0	0	0	0	509	510	219	1018	39	21	
4	0	0	0	0	587	514	220	0	39	21	
5	0	0	0	0	513	508	219	1018	39	21	
6	0	0	0	0	587	511	220	0	39	21	
7	0	0	0	0	509	514	219	595	39	21	
8	0	0	0	0	583	514	220	0	39	21	
9	0	0	0	0	505	509	219	1018	39	21	
10	0	0	0	0	581	513	220	0	39	21	
11	0	0	0	0	509	510	219	1018	39	21	
12	0	0	0	0	586	514	220	0	39	21	
13	0	0	0	0	508	512	220	1018	39	21	
14	0	0	0	0	586	512	220	0	39	21	
15	0	0	0	0	512	513	220	1018	39	21	
0	0	0	0	0	588	513	221	0	39	21	
1	0	0	0	0	513	510	220	482	39	21	
2	0	0	0	0	583	510	221	0	39	21	
3	0	0	0	0	508	507	220	697	39	21	
4	0	0	0	0	581	510	221	0	39	21	
5	0	0	0	0	515	509	220	285	39	21	
6	0	0	0	0	578	511	221	0	39	21	
7	0	0	0	0	504	511	220	336	39	21	
8	0	0	0	0	569	515	221	0	39	21	
9	0	0	0	0	508	511	221	0	39	21	
10	0	0	0	0	557	513	221	0	39	21	
11	0	0	0	0	511	506	221	0	39	21	
12	0	0	0	0	551	512	221	0	39	21	
13	0	0	0	0	513	507	221	0	39	21	
14	0	0	0	0	550	513	221	0	39	21	
15	0	0	0	0	522	508	221	0	39	21	
0	0	0	0	0	560	514	221	0	39	21	
1	0	0	0	0	511	508	221	0	39	21	
2	0	0	0	0	559	512	221	0	39	21	
3	0	0	0	0	513	510	221	663	39	21	
4	0	0	0	0	575	511	222	0	39	21	
5	0	0	0	0	505	512	221	1018	39	21	
6	0	0	0	0	567	514	221	0	39	21	
7	0	0	0	0	517	508	221	1018	39	21	
8	0	0	0	0	569	513	221	0	39	21	
9	0	0	0	0	510	511	221	1018	39	21	
10	0	0	0	0	565	515	221	0	39	21	
11	0	0	0	0	510	506	221	1018	39	21	
12	0	0	0	0	564	511	221	0	39	21	
13	0	0	0	0	515	508	221	1018	39	21	
14	0	0	0	0	568	514	221	0	39	21	
15	0	0	0	0	516	510	221	1018	39	21	
0	0	0	0	0	559	510	222	0	39	21	
1	0	0	0	0	511	506	221	1018	39	21	
2	0	0	0	0	573	513	221	0	39	21	
3	0	0	0	0	508	512	221	798	39	21	
4	0	0	0	0	572	513	222	0	39	21	
5	0	0	0	0	515	509	221	1018	39	21	
6	0	0	0	0	567	519	221	0	39	21	
7	0	0	0	0	511	509	221	811	39	21	
8	0	0	0	0	571	515	222	0	39	21	
9	0	0	0	0	517	511	221	1018	39	21	
10	0	0	0	0	573	514	221	0	39	21	
11	0	0	0	0	521	507	221	696	39	21	
12	0	0	0	0	574	512	222	0	39	21	
13	0	0	0	0	513	507	221	1018	39	21	
14	0	0	0	0	566	514	221	0	39	21	
15	0	0	0	0	512	511	221	560	39	21	
0	0	0	0	0	569	514	222	0	39	21	
1	0	0	0	0	514	507	221	1018	39	21	
2	0	0	0	0	569	516	221	0	39	21	
3	0	0	0	0	511	508	220	669	39	21	
4	0	0	0	0	565	511	221	0	39	21	
5	0	0	0	0	513	506	221	748	39	21	
6	0	0	0	0	567	512	221	0	39	21	
7	0	0	0	0	513	507	220	657	39	21	
8	0	0	0	0	577	514	221	0	39	21	
9	0	0	0	0	511	511	221	550	39	21	
10	0	0	0	0	565	514	221	0	39	21	
11	0	0	0	0	514	508	221	766	39	21	
12	0	0	0	0	567	514	222	0	39	21	
13	0	0	0	0	513	507	221	704	39	21	
14	0	0	0	0	570	513	221	0	39	21	
15	0	0	0	0	515	505	221	454	39	21	
0	0	0	0	0	570	511	222	0	39	21	
1	0	0	0	0	520	508	221	543	39	21	
2	0	0	0	0	576	514	221	0	39	21	
3	0	0	0	0	509	508	221	1018	39	21	
4	0	0	0	0	568	513	221	0	39	21	
5	0	0	0	0	513	507	221	75	39	21	
6	0	0	0	0	563	514	221	0	39	21	
7	0	0	0	0	514	510	221	0	39	21	
8	0	0	0	0	563	513	221	0	39	21	
9	0	0	0	0	518	507	221	0	39	21	
10	0	0	0	0	556	511	221	0	39	21	
11	0	0	0	0	514	509	221	0	39	21	
12	0	0	0	0	565	514	221	0	39	21	
13	0	0	0	0	513	514	221	68	39	21	
14	0	0	0	0	565	516	221	0	39	21	
15	0	0	0	0	508	510	221	418	39	21	
0	0	0	0	0	571	516	221	0	39	21	
1	0	0	0	0	512	510	221	1018	39	21	
2	0	0	0	0	568	512	221	0	39	21	
3	0	0	0	0	510	508	221	805	39	21	
4	0	0	0	0	565	513	221	0	39	21	
5	0	0	0	0	509	507	221	725	39	21	
6	0	0	0	0	566	515	221	0	39	21	
7	0	0	0	0	514	510	221	483	39	21	
8	0	0	0	0	568	512	221	0	39	21	
9	0	0	0	0	517	504	221	784	39	21	
10	0	0	0	0	568	513	221	0	39	21	
11	0	0	0	0	513	508	221	1018	39	21	
12	0	0	0	0	569	512	221	0	39	21	
13	0	0	0	0	513	510	221	596	39	21	
14	0	0	0	0	560	512	221	0	39	21	
15	0	0	0	0	511	507	221	529	39	21	
0	0	0	0	0	563	512	221	0	39	21	
1	0	0	0	0	516	507	220	622	39	21	
2	0	0	0	0	570	515	221	0	39	21	
3	0	0	0	0	514	508	220	331	39	21	
4	0	0	0	0	573	511	221	0	39	21	
5	0	0	0	0	509	510	220	664	39	21	
6	0	0	0	0	567	512	221	0	39	21	
7	0	0	0	0	518	508	221	535	39	21	
8	0	0	0	0	572	514	221	0	39	21	
9	0	0	0	0	513	507	220	356	39	21	
10	0	0	0	0	572	515	221	0	39	21	
11	0	0	0	0	510	508	220	387	39	21	
12	0	0	0	0	571	512	221	0	39	21	
13	0	0	0	0	512	506	220	406	39	21	
14	0	0	0	0	564	510	221	0	39	21	
15	0	0	0	0	509	509	220	695	39	21	
0	0	0	0	0	562	513	221	0	39	21	
1	0	0	0	0	512	508	220	352	39	21	
2	0	0	0	0	567	515	221	0	39	21	
3	0	0	0	0	512	507	220	495	39	21	
4	0	0	0	0	564	515	221	0	39	21	
5	0	0	0	0	509	511	220	497	39	21	
6	0	0	0	0	569	510	221	0	39	21	
7	0	0	0	0	511	510	220	541	39	21	
8	0	0	0	0	570	512	221	0	39	21	
9	0	0	0	0	511	510	220	163	39	21	
10	0	0	0	0	570	512	221	0	39	21	
11	0	0	0	0	510	508	220	504	39	21	
12	0	0	0	0	563	513	221	0	39	21	
13	0	0	0	0	513	506	221	569	39	21	
14	0	0	0	0	563	511	221	0	39	21	
15	0	0	0	0	513	508	220	365	39	21	
0	0	0	0	0	574	513	221	0	39	21	
1	0	0	0	0	518	510	220	349	39	21	
2	0	0	0	0	562	513	221	0	39	21	
3	0	0	0	0	511	507	221	282	39	21	
4	0	0	0	0	568	513	221	0	39	21	
5	0	0	0	0	518	510	221	388	39	21	
6	0	0	0	0	564	515	221	0	39	21	
7	0	0	0	0	514	510	221	235	39	21	
8	0	0	0	0	568	512	221	0	39	21	
9	0	0	0	0	520	504	221	650	39	21	
10	0	0	0	0	568	511	221	0	39	21	
11	0	0	0	0	517	508	221	334	39	21	
12	0	0	0	0	574	515	222	0	39	21	
13	0	0	0	0	512	508	221	546	39	21	
14	0	0	0	0	563	516	222	0	39	21	
15	0	0	0	0	511	511	222	348	39	21	
0	0	0	0	0	570	511	222	0	39	21	
1	0	0	0	0	511	513	222	528	39	21	
2	0	0	0	0	568	513	222	0	39	21	
3	0	0	0	0	514	509	222	501	39	21	
4	0	0	0	0	562	511	222	0	39	21	
5	0	0	0	0	516	507	222	454	39	21	
6	0	0	0	0	570	511	222	0	39	21	
7	0	0	0	0	516	508	222	1018	39	21	
8	0	0	0	0	571	510	223	0	39	21	
9	0	0	0	0	518	513	222	486	39	21	
10	0	0	0	0	572	513	223	0	39	21	
11	0	0	0	0	512	510	222	750	39	21	
12	0	0	0	0	567	512	223	0	39	21	
13	0	0	0	0	513	508	223	534	39	21	
14	0	0	0	0	572	513	223	0	39	21	
15	0	0	0	0	514	509	223	414	39	21	
0	0	0	0	0	567	514	224	0	39	21	
1	0	0	0	0	514	510	223	388	39	21	
2	0	0	0	0	567	509	224	0	39	21	
3	0	0	0	0	508	508	223	0	39	21	
4	0	0	0	0	567	510	224	0	39	21	
5	0	0	0	0	507	508	224	557	39	21	
6	0	0	0	0	575	512	224	0	39	21	
