# OpenSignals Text File Format. Version 1
# {"84:BA:20:5E:FF:67": {"position": 0, "device": "bitalino_rev", "device name": "84:BA:20:5E:FF:67", "device connection": "BTH84:BA:20:5E:FF:67", "sampling rate": 100, "resolution": [4, 1, 1, 1, 1, 10, 10, 10, 10, 6, 6], "firmware version": 1282, "comments": "", "keywords": "", "mode": 0, "sync interval": 2, "date": "2024-3-4", "time": "17:21:10.17", "channels": [1, 2, 3, 4, 5, 6], "sensor": ["RAW", "RAW", "RAW", "RAW", "RAW", "RAW"], "label": ["A1", "A2", "A3", "A4", "A5", "A6"], "column": ["nSeq", "I1", "I2", "O1", "O2", "A1", "A2", "A3", "A4", "A5", "A6"], "special": [{}, {}, {}, {}, {}, {}], "digital IO": [0, 0, 1, 1]}}
# EndOfHeader
0	0	0	0	0	510	510	206	977	39	8	
1	0	0	0	0	496	503	205	0	39	8	
2	0	0	0	0	506	512	206	1018	39	8	
3	0	0	0	0	495	511	205	0	39	8	
4	0	0	0	0	510	516	206	0	39	8	
5	0	0	0	0	502	504	205	0	39	8	
6	0	0	0	0	505	513	206	861	39	8	
7	0	0	0	0	498	508	205	0	39	8	
8	0	0	0	0	513	512	206	866	39	8	
9	0	0	0	0	502	506	205	0	39	8	
10	0	0	0	0	512	513	206	830	39	8	
11	0	0	0	0	496	506	205	0	39	8	
12	0	0	0	0	505	513	206	750	39	8	
13	0	0	0	0	498	507	205	0	39	8	
14	0	0	0	0	504	513	206	421	39	8	
15	0	0	0	0	504	510	205	0	39	8	
0	0	0	0	0	514	514	206	0	39	8	
1	0	0	0	0	506	508	205	0	39	8	
2	0	0	0	0	506	516	206	0	39	8	
3	0	0	0	0	500	510	205	0	39	8	
4	0	0	0	0	511	516	206	902	39	8	
5	0	0	0	0	502	510	205	0	39	8	
6	0	0	0	0	516	511	206	0	39	8	
7	0	0	0	0	500	506	205	0	39	8	
8	0	0	0	0	504	514	206	0	39	8	
9	0	0	0	0	499	506	205	0	39	8	
10	0	0	0	0	515	516	206	0	39	8	
11	0	0	0	0	504	507	205	0	39	8	
12	0	0	0	0	513	514	206	0	39	8	
13	0	0	0	0	500	507	205	0	39	8	
14	0	0	0	0	517	515	206	0	39	8	
15	0	0	0	0	511	506	205	0	39	8	
0	0	0	0	0	519	516	206	0	39	8	
1	0	0	0	0	503	505	205	0	39	8	
2	0	0	0	0	515	516	205	0	39	8	
3	0	0	0	0	502	505	205	0	39	8	
4	0	0	0	0	520	514	206	0	39	8	
5	0	0	0	0	502	505	205	0	39	8	
6	0	0	0	0	514	517	206	0	39	8	
7	0	0	0	0	496	509	205	0	39	8	
8	0	0	0	0	507	514	206	0	39	8	
9	0	0	0	0	505	507	205	0	39	8	
10	0	0	0	0	510	517	205	0	39	8	
11	0	0	0	0	505	508	205	0	39	8	
12	0	0	0	0	521	513	205	0	39	8	
13	0	0	0	0	503	508	205	0	39	8	
14	0	0	0	0	518	515	205	0	39	8	
15	0	0	0	0	503	508	205	0	39	8	
0	0	0	0	0	522	512	205	0	39	8	
1	0	0	0	0	509	508	205	0	39	8	
2	0	0	0	0	522	515	205	0	39	8	
3	0	0	0	0	506	508	205	0	39	8	
4	0	0	0	0	524	512	205	0	39	8	
5	0	0	0	0	504	507	205	0	39	8	
6	0	0	0	0	520	514	205	0	39	8	
7	0	0	0	0	504	508	205	0	39	8	
8	0	0	0	0	515	513	205	0	39	8	
9	0	0	0	0	504	505	204	0	39	8	
10	0	0	0	0	521	511	205	0	39	8	
11	0	0	0	0	506	505	204	0	39	8	
12	0	0	0	0	520	516	205	0	39	8	
13	0	0	0	0	500	505	204	0	39	8	
14	0	0	0	0	517	515	205	0	39	8	
15	0	0	0	0	510	508	204	0	39	8	
0	0	0	0	0	520	516	205	0	39	8	
1	0	0	0	0	505	509	204	0	39	8	
2	0	0	0	0	519	516	205	0	39	8	
3	0	0	0	0	504	506	204	0	39	8	
4	0	0	0	0	519	514	205	0	39	8	
5	0	0	0	0	509	505	204	0	39	8	
6	0	0	0	0	520	515	205	0	39	8	
7	0	0	0	0	508	507	204	0	39	8	
8	0	0	0	0	520	513	205	0	39	8	
9	0	0	0	0	516	510	204	0	39	8	
10	0	0	0	0	520	514	205	0	39	8	
11	0	0	0	0	502	506	204	0	39	8	
12	0	0	0	0	522	516	205	0	39	8	
13	0	0	0	0	506	508	204	0	39	8	
14	0	0	0	0	525	515	205	0	39	8	
15	0	0	0	0	503	507	204	0	39	8	
0	0	0	0	0	528	513	205	0	39	8	
1	0	0	0	0	505	508	204	0	39	8	
2	0	0	0	0	523	516	204	0	39	8	
3	0	0	0	0	501	510	204	0	39	8	
4	0	0	0	0	522	514	205	0	39	8	
5	0	0	0	0	496	508	204	29	39	8	
6	0	0	0	0	525	516	204	0	39	8	
7	0	0	0	0	505	511	204	0	39	8	
8	0	0	0	0	521	517	205	0	39	8	
9	0	0	0	0	508	509	204	0	39	8	
10	0	0	0	0	524	512	204	0	39	8	
11	0	0	0	0	509	508	204	0	39	8	
12	0	0	0	0	523	516	204	0	39	8	
13	0	0	0	0	505	510	204	0	39	8	
14	0	0	0	0	523	515	204	0	39	8	
15	0	0	0	0	504	509	204	0	39	8	
0	0	0	0	0	525	513	204	0	39	8	
1	0	0	0	0	512	509	204	0	39	8	
2	0	0	0	0	527	514	204	0	39	8	
3	0	0	0	0	508	503	204	0	39	8	
4	0	0	0	0	519	514	204	0	39	8	
5	0	0	0	0	512	504	204	0	39	8	
6	0	0	0	0	518	514	204	0	39	8	
7	0	0	0	0	504	508	204	0	39	8	
8	0	0	0	0	524	515	204	0	39	8	
9	0	0	0	0	508	508	204	0	39	8	
10	0	0	0	0	522	510	204	0	39	8	
11	0	0	0	0	504	509	204	0	39	8	
12	0	0	0	0	522	510	204	0	39	8	
13	0	0	0	0	510	506	204	0	39	8	
14	0	0	0	0	521	512	204	0	39	8	
15	0	0	0	0	503	508	204	0	39	8	
0	0	0	0	0	528	516	204	0	39	8	
1	0	0	0	0	505	508	204	0	39	8	
2	0	0	0	0	525	514	204	0	39	8	
3	0	0	0	0	503	504	203	0	39	8	
4	0	0	0	0	522	513	204	0	39	8	
5	0	0	0	0	507	508	204	0	39	8	
6	0	0	0	0	535	514	204	0	39	8	
7	0	0	0	0	508	509	203	0	39	8	
8	0	0	0	0	526	514	204	0	39	8	
9	0	0	0	0	515	508	203	461	39	8	
10	0	0	0	0	533	515	204	0	39	8	
11	0	0	0	0	505	510	203	0	39	8	
12	0	0	0	0	527	516	204	0	39	8	
13	0	0	0	0	503	509	203	0	39	8	
14	0	0	0	0	528	511	204	0	39	8	
15	0	0	0	0	511	508	203	0	39	8	
0	0	0	0	0	526	516	204	0	39	8	
1	0	0	0	0	508	509	203	0	39	8	
2	0	0	0	0	515	512	204	0	39	8	
3	0	0	0	0	511	511	203	0	39	8	
4	0	0	0	0	529	514	204	0	39	8	
5	0	0	0	0	512	506	203	0	39	8	
6	0	0	0	0	529	513	204	0	39	8	
7	0	0	0	0	514	508	203	0	39	8	
8	0	0	0	0	529	515	204	0	39	8	
9	0	0	0	0	504	510	203	0	39	8	
10	0	0	0	0	527	515	203	0	39	8	
11	0	0	0	0	510	507	203	0	39	8	
12	0	0	0	0	524	513	203	0	39	8	
13	0	0	0	0	512	507	203	0	39	8	
14	0	0	0	0	525	514	203	0	39	8	
15	0	0	0	0	512	507	202	0	39	8	
0	0	0	0	0	527	513	203	0	39	8	
1	0	0	0	0	509	510	202	107	39	8	
2	0	0	0	0	521	515	202	0	39	8	
3	0	0	0	0	513	507	201	112	39	8	
4	0	0	0	0	529	516	202	0	39	8	
5	0	0	0	0	508	509	201	439	39	8	
6	0	0	0	0	526	513	201	0	39	8	
7	0	0	0	0	510	508	201	0	39	8	
8	0	0	0	0	528	513	201	0	39	8	
9	0	0	0	0	512	509	200	0	39	8	
10	0	0	0	0	530	514	201	0	39	8	
11	0	0	0	0	503	505	200	0	39	8	
12	0	0	0	0	530	515	200	0	39	8	
13	0	0	0	0	511	509	199	115	39	8	
14	0	0	0	0	531	513	200	0	39	8	
15	0	0	0	0	511	506	199	0	39	8	
0	0	0	0	0	528	513	200	0	39	8	
1	0	0	0	0	513	507	199	308	39	8	
2	0	0	0	0	525	515	199	0	39	8	
3	0	0	0	0	516	508	199	319	39	8	
4	0	0	0	0	536	512	199	0	39	8	
5	0	0	0	0	507	510	199	20	39	8	
6	0	0	0	0	532	516	199	0	39	8	
7	0	0	0	0	513	506	198	0	39	8	
8	0	0	0	0	531	512	199	0	39	8	
9	0	0	0	0	511	508	198	0	39	8	
10	0	0	0	0	527	512	199	0	39	8	
11	0	0	0	0	508	508	198	0	39	8	
12	0	0	0	0	532	512	199	0	39	8	
13	0	0	0	0	506	510	198	615	39	8	
14	0	0	0	0	533	515	198	0	39	8	
15	0	0	0	0	513	504	198	0	39	8	
0	0	0	0	0	529	513	198	0	39	8	
1	0	0	0	0	512	505	198	0	39	8	
2	0	0	0	0	534	515	198	0	39	8	
3	0	0	0	0	511	508	197	8	39	8	
4	0	0	0	0	527	518	198	0	39	8	
5	0	0	0	0	512	506	197	0	39	8	
6	0	0	0	0	533	512	198	0	39	8	
7	0	0	0	0	512	509	197	0	39	8	
8	0	0	0	0	537	514	198	0	39	8	
9	0	0	0	0	516	506	197	0	39	8	
10	0	0	0	0	537	513	198	0	39	8	
11	0	0	0	0	508	507	197	0	39	8	
12	0	0	0	0	535	516	198	0	39	8	
13	0	0	0	0	510	508	197	0	39	8	
14	0	0	0	0	528	515	198	0	39	8	
15	0	0	0	0	512	507	198	1018	39	8	
0	0	0	0	0	524	512	198	0	39	8	
1	0	0	0	0	510	513	198	0	39	8	
2	0	0	0	0	534	513	198	0	39	8	
3	0	0	0	0	519	504	198	0	39	8	
4	0	0	0	0	532	514	198	0	39	8	
5	0	0	0	0	519	510	198	0	39	8	
6	0	0	0	0	527	512	199	0	39	8	
7	0	0	0	0	510	508	198	0	39	8	
8	0	0	0	0	536	513	199	0	39	8	
9	0	0	0	0	512	510	198	0	39	8	
10	0	0	0	0	528	514	199	0	39	8	
11	0	0	0	0	512	511	199	0	39	8	
12	0	0	0	0	533	513	199	0	39	8	
13	0	0	0	0	517	508	199	0	39	8	
14	0	0	0	0	526	514	200	0	39	8	
15	0	0	0	0	512	506	199	0	39	8	
0	0	0	0	0	533	513	200	0	39	8	
1	0	0	0	0	513	508	200	0	39	8	
2	0	0	0	0	532	513	201	0	39	8	
3	0	0	0	0	506	509	200	159	39	8	
4	0	0	0	0	531	515	201	0	39	8	
5	0	0	0	0	510	507	200	0	39	8	
6	0	0	0	0	535	512	201	0	39	8	
7	0	0	0	0	506	507	201	0	39	8	
8	0	0	0	0	535	515	202	0	39	8	
9	0	0	0	0	518	510	201	361	39	8	
10	0	0	0	0	527	512	202	0	39	8	
11	0	0	0	0	508	509	202	124	39	8	
12	0	0	0	0	536	513	203	0	39	8	
13	0	0	0	0	514	508	202	365	39	8	
14	0	0	0	0	528	515	203	0	39	8	
15	0	0	0	0	509	508	202	1	39	8	
0	0	0	0	0	534	515	203	0	39	8	
1	0	0	0	0	510	509	202	15	39	8	
2	0	0	0	0	535	510	203	0	39	8	
3	0	0	0	0	515	508	202	0	39	8	
4	0	0	0	0	532	514	203	0	39	8	
5	0	0	0	0	513	508	202	285	39	8	
6	0	0	0	0	534	511	203	0	39	8	
7	0	0	0	0	513	506	202	105	39	8	
8	0	0	0	0	530	514	203	0	39	8	
9	0	0	0	0	511	504	203	0	39	8	
10	0	0	0	0	536	512	203	0	39	8	
11	0	0	0	0	512	508	203	95	39	8	
12	0	0	0	0	541	511	203	0	39	8	
13	0	0	0	0	517	510	203	434	39	8	
14	0	0	0	0	538	514	203	0	39	8	
15	0	0	0	0	515	505	203	0	39	8	
0	0	0	0	0	537	512	204	0	39	8	
1	0	0	0	0	509	506	203	1018	39	8	
2	0	0	0	0	532	514	204	0	39	8	
3	0	0	0	0	508	510	203	0	39	8	
4	0	0	0	0	530	511	204	0	39	8	
5	0	0	0	0	518	508	204	0	39	8	
6	0	0	0	0	529	513	204	0	39	8	
7	0	0	0	0	510	509	204	0	39	8	
8	0	0	0	0	530	511	205	0	39	8	
9	0	0	0	0	512	510	204	236	39	8	
10	0	0	0	0	540	515	205	0	39	8	
11	0	0	0	0	505	510	205	1018	39	8	
12	0	0	0	0	532	513	206	0	39	8	
13	0	0	0	0	508	509	205	1018	39	8	
14	0	0	0	0	529	515	206	0	39	8	
15	0	0	0	0	511	508	205	60	39	8	
0	0	0	0	0	532	513	206	0	39	8	
1	0	0	0	0	510	508	206	0	39	8	
2	0	0	0	0	531	514	206	0	39	8	
3	0	0	0	0	511	508	206	0	39	8	
4	0	0	0	0	533	512	207	0	39	8	
5	0	0	0	0	513	510	206	0	39	8	
6	0	0	0	0	533	513	207	0	39	8	
7	0	0	0	0	515	509	207	0	39	8	
8	0	0	0	0	529	512	207	0	39	8	
9	0	0	0	0	512	507	207	513	39	8	
10	0	0	0	0	536	515	207	0	39	8	
11	0	0	0	0	508	511	207	431	39	8	
12	0	0	0	0	532	515	207	0	39	8	
13	0	0	0	0	511	510	207	1018	39	8	
14	0	0	0	0	533	513	207	0	39	8	
15	0	0	0	0	511	505	207	1018	39	8	
0	0	0	0	0	541	515	208	0	39	8	
1	0	0	0	0	515	508	207	0	39	8	
2	0	0	0	0	535	512	208	0	39	8	
3	0	0	0	0	511	509	207	0	39	8	
4	0	0	0	0	534	515	208	0	39	8	
5	0	0	0	0	512	508	208	0	39	8	
6	0	0	0	0	532	512	208	0	39	8	
7	0	0	0	0	514	508	208	0	39	8	
8	0	0	0	0	536	513	209	0	39	8	
9	0	0	0	0	515	505	208	175	39	8	
10	0	0	0	0	531	516	209	0	39	8	
11	0	0	0	0	509	508	209	1018	39	8	
12	0	0	0	0	528	513	209	0	39	8	
13	0	0	0	0	508	507	209	1018	39	8	
14	0	0	0	0	535	514	209	0	39	8	
15	0	0	0	0	517	508	209	396	39	8	
0	0	0	0	0	538	512	209	0	39	8	
1	0	0	0	0	505	507	209	326	39	8	
2	0	0	0	0	538	512	209	0	39	8	
3	0	0	0	0	511	507	209	1018	39	8	
4	0	0	0	0	537	512	209	0	39	8	
5	0	0	0	0	510	508	209	1018	39	8	
6	0	0	0	0	528	515	209	0	39	8	
7	0	0	0	0	509	508	209	478	39	8	
8	0	0	0	0	542	510	209	0	39	8	
9	0	0	0	0	516	508	209	1018	39	8	
10	0	0	0	0	542	516	209	0	39	8	
11	0	0	0	0	515	510	208	1018	39	8	
12	0	0	0	0	539	512	209	0	39	8	
13	0	0	0	0	512	506	208	327	39	8	
14	0	0	0	0	531	515	209	0	39	8	
15	0	0	0	0	509	508	208	0	39	8	
0	0	0	0	0	537	510	209	0	39	8	
1	0	0	0	0	510	509	208	0	39	8	
2	0	0	0	0	536	512	209	0	39	8	
3	0	0	0	0	506	510	208	0	39	8	
4	0	0	0	0	536	513	209	0	39	8	
5	0	0	0	0	517	510	208	1018	39	8	
6	0	0	0	0	544	512	209	0	39	8	
7	0	0	0	0	509	506	208	1018	39	8	
8	0	0	0	0	539	513	209	0	39	8	
9	0	0	0	0	510	510	209	605	39	8	
10	0	0	0	0	543	509	209	0	39	8	
11	0	0	0	0	511	507	209	9	39	8	
12	0	0	0	0	537	512	210	0	39	8	
13	0	0	0	0	514	506	209	79	39	8	
14	0	0	0	0	540	510	210	0	39	8	
15	0	0	0	0	507	505	210	1018	39	8	
0	0	0	0	0	528	511	211	0	39	8	
1	0	0	0	0	508	508	210	527	39	8	
2	0	0	0	0	538	513	211	0	39	8	
3	0	0	0	0	505	509	211	1018	39	8	
4	0	0	0	0	534	510	211	0	39	8	
5	0	0	0	0	519	507	211	1018	39	8	
6	0	0	0	0	538	513	212	0	39	8	
7	0	0	0	0	513	507	212	1018	39	8	
8	0	0	0	0	534	515	213	0	39	8	
9	0	0	0	0	505	508	213	284	39	8	
10	0	0	0	0	536	513	214	0	39	8	
11	0	0	0	0	511	507	213	415	39	8	
12	0	0	0	0	536	513	214	0	39	8	
13	0	0	0	0	511	510	214	1018	39	8	
14	0	0	0	0	535	513	215	0	39	8	
15	0	0	0	0	511	512	215	0	39	8	
0	0	0	0	0	542	510	216	0	39	8	
1	0	0	0	0	509	508	216	1018	39	8	
2	0	0	0	0	541	512	216	0	39	8	
3	0	0	0	0	509	507	216	1018	39	8	
4	0	0	0	0	537	511	217	0	39	8	
5	0	0	0	0	509	508	217	219	39	8	
6	0	0	0	0	538	509	218	0	39	8	
7	0	0	0	0	507	505	217	1018	39	8	
8	0	0	0	0	531	511	218	0	39	8	
9	0	0	0	0	511	507	218	1018	39	8	
10	0	0	0	0	549	513	219	0	39	8	
11	0	0	0	0	507	506	218	1018	39	8	
12	0	0	0	0	547	511	219	0	39	8	
13	0	0	0	0	511	508	218	1018	39	8	
14	0	0	0	0	547	510	219	0	39	8	
15	0	0	0	0	515	511	218	1018	39	8	
0	0	0	0	0	548	511	219	0	39	8	
1	0	0	0	0	505	510	218	1018	39	8	
2	0	0	0	0	547	512	219	0	39	8	
3	0	0	0	0	502	508	218	1018	39	8	
4	0	0	0	0	545	513	219	0	39	8	
5	0	0	0	0	512	508	217	0	39	8	
6	0	0	0	0	543	512	218	0	39	8	
7	0	0	0	0	511	509	217	0	39	8	
8	0	0	0	0	548	515	218	0	39	8	
9	0	0	0	0	504	509	216	1018	39	8	
10	0	0	0	0	554	511	217	0	39	8	
11	0	0	0	0	507	507	216	1018	39	8	
12	0	0	0	0	549	510	217	0	39	8	
13	0	0	0	0	509	510	215	1018	39	8	
14	0	0	0	0	544	511	217	0	39	8	
15	0	0	0	0	511	509	215	0	39	8	
0	0	0	0	0	538	513	216	0	39	8	
1	0	0	0	0	508	511	214	0	39	8	
2	0	0	0	0	538	512	215	0	39	8	
3	0	0	0	0	512	509	214	0	39	8	
4	0	0	0	0	541	512	215	0	39	8	
5	0	0	0	0	519	509	214	0	39	8	
6	0	0	0	0	539	512	214	0	39	8	
7	0	0	0	0	513	508	213	0	39	8	
8	0	0	0	0	539	511	214	0	39	8	
9	0	0	0	0	511	507	213	0	39	8	
10	0	0	0	0	543	513	214	0	39	8	
11	0	0	0	0	512	505	213	1018	39	8	
12	0	0	0	0	551	505	214	0	39	8	
13	0	0	0	0	504	507	213	1018	39	8	
14	0	0	0	0	544	513	214	0	39	8	
15	0	0	0	0	514	506	214	0	39	8	
0	0	0	0	0	543	510	215	0	39	8	
1	0	0	0	0	517	506	214	0	39	8	
2	0	0	0	0	539	511	215	0	39	8	
3	0	0	0	0	514	509	215	0	39	8	
4	0	0	0	0	540	512	216	0	39	8	
5	0	0	0	0	512	507	215	0	39	8	
6	0	0	0	0	545	512	215	0	39	8	
7	0	0	0	0	509	509	215	610	39	8	
8	0	0	0	0	548	510	216	0	39	8	
9	0	0	0	0	512	508	214	1018	39	8	
10	0	0	0	0	552	509	215	0	39	8	
11	0	0	0	0	507	511	214	1018	39	8	
12	0	0	0	0	545	509	215	0	39	8	
13	0	0	0	0	517	508	214	1018	39	8	
14	0	0	0	0	546	511	215	0	39	8	
15	0	0	0	0	516	507	214	0	39	8	
0	0	0	0	0	540	512	215	0	39	8	
1	0	0	0	0	509	507	214	0	39	8	
2	0	0	0	0	544	511	215	0	39	8	
3	0	0	0	0	513	510	214	0	39	8	
4	0	0	0	0	542	512	215	0	39	8	
5	0	0	0	0	510	505	214	0	39	8	
6	0	0	0	0	540	511	214	0	39	8	
7	0	0	0	0	513	511	214	0	39	8	
8	0	0	0	0	547	515	215	0	39	8	
9	0	0	0	0	507	510	214	0	39	8	
10	0	0	0	0	547	513	215	0	39	8	
11	0	0	0	0	515	510	215	0	39	8	
12	0	0	0	0	542	511	216	0	39	8	
13	0	0	0	0	510	508	215	283	39	8	
14	0	0	0	0	543	512	216	0	39	8	
15	0	0	0	0	505	509	216	1018	39	8	
0	0	0	0	0	542	510	216	0	39	8	
1	0	0	0	0	516	508	216	1018	39	8	
2	0	0	0	0	549	515	217	0	39	8	
3	0	0	0	0	510	508	216	1018	39	8	
4	0	0	0	0	554	515	217	0	39	8	
5	0	0	0	0	514	508	217	1018	39	8	
6	0	0	0	0	545	511	218	0	39	8	
7	0	0	0	0	512	511	218	1018	39	8	
8	0	0	0	0	550	511	219	0	39	8	
9	0	0	0	0	510	508	219	1018	39	8	
10	0	0	0	0	540	510	220	0	39	8	
11	0	0	0	0	508	512	219	1018	39	8	
12	0	0	0	0	543	513	220	0	39	8	
13	0	0	0	0	513	508	220	1018	39	8	
14	0	0	0	0	550	509	221	0	39	8	
15	0	0	0	0	513	508	220	1018	39	8	
0	0	0	0	0	549	512	222	0	39	8	
1	0	0	0	0	513	508	220	1018	39	8	
2	0	0	0	0	545	512	222	0	39	8	
3	0	0	0	0	513	508	221	1018	39	8	
4	0	0	0	0	546	511	222	0	39	8	
5	0	0	0	0	515	505	221	1018	39	8	
6	0	0	0	0	553	513	222	0	39	8	
7	0	0	0	0	512	512	221	1018	39	8	
8	0	0	0	0	550	514	222	0	39	8	
9	0	0	0	0	511	511	221	1018	39	8	
10	0	0	0	0	547	512	222	0	39	8	
11	0	0	0	0	510	507	221	1018	39	8	
12	0	0	0	0	546	509	223	0	39	8	
13	0	0	0	0	505	509	221	1018	39	8	
14	0	0	0	0	545	511	223	0	39	8	
15	0	0	0	0	515	506	222	1018	39	8	
0	0	0	0	0	553	513	223	0	39	8	
1	0	0	0	0	518	506	222	1018	39	8	
2	0	0	0	0	554	508	223	0	39	8	
3	0	0	0	0	507	510	222	1019	39	8	
4	0	0	0	0	560	511	224	0	39	8	
5	0	0	0	0	512	508	224	1018	39	8	
6	0	0	0	0	565	511	224	0	39	8	
7	0	0	0	0	507	508	223	1018	39	8	
8	0	0	0	0	563	505	224	0	39	8	
9	0	0	0	0	510	507	223	1018	39	8	
10	0	0	0	0	572	508	224	0	39	8	
11	0	0	0	0	506	510	223	1018	39	8	
12	0	0	0	0	564	512	224	0	39	8	
13	0	0	0	0	511	509	223	1018	39	8	
14	0	0	0	0	560	511	223	0	39	8	
15	0	0	0	0	512	508	222	1018	39	8	
0	0	0	0	0	552	513	223	0	39	8	
1	0	0	0	0	517	506	221	1018	39	8	
2	0	0	0	0	565	511	222	0	39	8	
3	0	0	0	0	505	510	221	1018	39	8	
4	0	0	0	0	555	511	222	0	39	8	
5	0	0	0	0	502	510	221	1018	39	8	
6	0	0	0	0	560	509	221	0	39	8	
7	0	0	0	0	507	510	220	1019	39	8	
8	0	0	0	0	566	508	221	0	39	8	
9	0	0	0	0	505	508	220	1018	39	8	
10	0	0	0	0	564	511	220	0	39	8	
11	0	0	0	0	507	509	219	1018	39	8	
12	0	0	0	0	563	511	220	0	39	8	
13	0	0	0	0	511	510	219	1018	39	8	
14	0	0	0	0	566	511	220	0	39	8	
15	0	0	0	0	510	514	218	1019	39	8	
0	0	0	0	0	564	512	219	0	39	8	
1	0	0	0	0	506	511	218	1018	39	8	
2	0	0	0	0	560	510	219	0	39	8	
3	0	0	0	0	509	511	218	1018	39	8	
4	0	0	0	0	564	508	219	0	39	8	
5	0	0	0	0	509	508	217	1018	39	8	
6	0	0	0	0	559	509	218	0	39	8	
7	0	0	0	0	508	508	217	1018	39	8	
8	0	0	0	0	562	510	218	0	39	8	
9	0	0	0	0	505	510	217	1018	39	8	
10	0	0	0	0	562	510	218	0	39	8	
11	0	0	0	0	512	511	217	1018	39	8	
12	0	0	0	0	563	510	218	0	39	8	
13	0	0	0	0	507	507	217	1018	39	8	
14	0	0	0	0	562	509	218	0	39	8	
15	0	0	0	0	515	511	217	1018	39	8	
0	0	0	0	0	564	505	219	0	39	8	
1	0	0	0	0	505	508	218	1018	39	8	
2	0	0	0	0	561	510	220	0	39	8	
3	0	0	0	0	507	510	219	1018	39	8	
4	0	0	0	0	568	508	220	0	39	8	
5	0	0	0	0	504	507	220	1018	39	8	
6	0	0	0	0	558	507	221	0	39	8	
7	0	0	0	0	511	508	220	1018	39	8	
8	0	0	0	0	559	510	221	0	39	8	
9	0	0	0	0	511	508	220	1018	39	8	
10	0	0	0	0	567	509	222	0	39	8	
11	0	0	0	0	508	508	222	1019	39	8	
12	0	0	0	0	559	510	223	0	39	8	
13	0	0	0	0	512	507	223	1018	39	8	
14	0	0	0	0	564	507	225	0	39	8	
15	0	0	0	0	511	509	225	1018	39	8	
0	0	0	0	0	559	507	227	0	39	8	
1	0	0	0	0	508	509	227	1018	39	8	
2	0	0	0	0	555	509	229	0	39	8	
3	0	0	0	0	509	513	229	1018	39	8	
4	0	0	0	0	558	509	230	0	39	8	
5	0	0	0	0	511	510	229	1018	39	8	
6	0	0	0	0	565	511	231	0	39	8	
7	0	0	0	0	508	511	230	1018	39	8	
8	0	0	0	0	567	509	231	0	39	8	
9	0	0	0	0	509	509	230	1018	39	8	
10	0	0	0	0	564	511	231	0	39	8	
11	0	0	0	0	510	508	231	1018	39	8	
12	0	0	0	0	568	509	232	0	39	8	
13	0	0	0	0	511	509	231	1018	39	8	
14	0	0	0	0	565	510	232	0	39	8	
15	0	0	0	0	506	506	231	1018	39	8	
0	0	0	0	0	562	508	233	0	39	8	
1	0	0	0	0	500	509	232	1018	39	8	
2	0	0	0	0	564	508	233	0	39	8	
3	0	0	0	0	509	510	232	1018	39	8	
4	0	0	0	0	562	513	234	0	39	8	
5	0	0	0	0	504	511	233	1018	39	8	
6	0	0	0	0	564	510	234	0	39	8	
7	0	0	0	0	505	512	233	1018	39	8	
8	0	0	0	0	551	510	234	0	39	8	
9	0	0	0	0	510	505	233	0	39	8	
10	0	0	0	0	551	508	234	0	39	8	
11	0	0	0	0	504	508	233	0	39	8	
12	0	0	0	0	555	510	235	0	39	8	
13	0	0	0	0	513	507	235	0	39	8	
14	0	0	0	0	551	510	236	0	39	8	
15	0	0	0	0	510	506	236	1018	39	8	
0	0	0	0	0	555	510	239	0	39	8	
1	0	0	0	0	511	505	238	1018	39	8	
2	0	0	0	0	550	505	240	0	39	8	
3	0	0	0	0	507	509	240	1018	39	8	
4	0	0	0	0	557	509	242	0	39	8	
5	0	0	0	0	508	510	242	1019	39	8	
6	0	0	0	0	551	512	243	0	39	8	
7	0	0	0	0	510	510	243	1019	39	8	
8	0	0	0	0	551	509	244	0	39	8	
9	0	0	0	0	514	508	243	1018	39	8	
10	0	0	0	0	551	509	245	0	39	8	
11	0	0	0	0	511	510	244	1018	39	8	
12	0	0	0	0	554	512	245	0	39	8	
13	0	0	0	0	508	510	244	1018	39	8	
14	0	0	0	0	551	511	245	0	39	8	
15	0	0	0	0	512	508	243	1018	39	8	
0	0	0	0	0	548	507	244	0	39	8	
1	0	0	0	0	506	511	243	1018	39	8	
2	0	0	0	0	551	511	244	0	39	8	
3	0	0	0	0	519	507	242	1018	39	8	
4	0	0	0	0	550	511	243	0	39	8	
5	0	0	0	0	512	507	242	1018	39	8	
6	0	0	0	0	557	509	242	0	39	8	
7	0	0	0	0	509	508	241	1018	39	8	
8	0	0	0	0	556	511	241	0	39	8	
9	0	0	0	0	510	508	240	1018	39	8	
10	0	0	0	0	552	511	240	0	39	8	
11	0	0	0	0	506	508	239	1018	39	8	
12	0	0	0	0	562	508	240	0	39	8	
13	0	0	0	0	505	511	239	1018	39	8	
14	0	0	0	0	566	508	240	0	39	8	
15	0	0	0	0	512	510	240	1018	39	8	
0	0	0	0	0	564	506	240	0	39	8	
1	0	0	0	0	502	506	239	1018	39	8	
2	0	0	0	0	550	509	240	0	39	8	
3	0	0	0	0	515	506	239	640	39	8	
4	0	0	0	0	548	510	240	0	39	8	
5	0	0	0	0	510	507	239	1018	39	8	
6	0	0	0	0	550	511	240	0	39	8	
7	0	0	0	0	510	510	239	1018	39	8	
8	0	0	0	0	543	509	240	0	39	8	
9	0	0	0	0	519	508	238	1018	39	8	
10	0	0	0	0	544	511	239	0	39	8	
11	0	0	0	0	509	510	238	1018	39	8	
12	0	0	0	0	554	512	239	0	39	8	
13	0	0	0	0	512	510	238	1018	39	8	
14	0	0	0	0	554	510	239	0	39	8	
15	0	0	0	0	508	509	238	1018	39	8	
0	0	0	0	0	552	509	239	0	39	8	
1	0	0	0	0	505	508	237	1018	39	8	
2	0	0	0	0	550	508	238	0	39	8	
3	0	0	0	0	508	507	237	1018	39	8	
4	0	0	0	0	556	508	238	0	39	8	
5	0	0	0	0	512	509	236	1018	39	8	
6	0	0	0	0	545	510	238	0	39	8	
7	0	0	0	0	512	511	236	1018	39	8	
8	0	0	0	0	547	509	237	0	39	8	
9	0	0	0	0	516	509	236	1018	39	8	
10	0	0	0	0	547	511	237	0	39	8	
11	0	0	0	0	511	507	236	1018	39	8	
12	0	0	0	0	547	509	237	0	39	8	
13	0	0	0	0	514	508	235	1018	39	8	
14	0	0	0	0	545	509	236	0	39	8	
15	0	0	0	0	511	508	235	1018	39	8	
0	0	0	0	0	547	509	236	0	39	8	
1	0	0	0	0	500	506	235	1018	39	8	
2	0	0	0	0	553	511	236	0	39	8	
3	0	0	0	0	508	506	235	1018	39	8	
4	0	0	0	0	551	510	236	0	39	8	
5	0	0	0	0	513	505	235	1018	39	8	
6	0	0	0	0	548	508	236	0	39	8	
7	0	0	0	0	504	509	235	1018	39	8	
8	0	0	0	0	545	509	236	0	39	8	
9	0	0	0	0	508	508	235	1018	39	8	
10	0	0	0	0	549	509	236	0	39	8	
11	0	0	0	0	507	507	234	1018	39	8	
12	0	0	0	0	546	511	236	0	39	8	
13	0	0	0	0	511	508	234	1018	39	8	
14	0	0	0	0	553	509	235	0	39	8	
15	0	0	0	0	510	509	234	1018	39	8	
0	0	0	0	0	550	510	235	0	39	8	
1	0	0	0	0	507	507	234	1018	39	8	
2	0	0	0	0	549	511	235	0	39	8	
3	0	0	0	0	510	506	233	1018	39	8	
4	0	0	0	0	551	508	235	0	39	8	
5	0	0	0	0	504	505	233	1018	39	8	
6	0	0	0	0	553	506	234	0	39	8	
7	0	0	0	0	509	507	233	1018	39	8	
8	0	0	0	0	543	510	234	0	39	8	
9	0	0	0	0	507	508	233	1019	39	8	
10	0	0	0	0	546	507	234	0	39	8	
11	0	0	0	0	508	511	233	1018	39	8	
12	0	0	0	0	551	509	234	0	39	8	
13	0	0	0	0	509	508	233	1018	39	8	
14	0	0	0	0	548	509	234	0	39	8	
15	0	0	0	0	510	511	232	1018	39	8	
0	0	0	0	0	552	511	234	0	39	8	
1	0	0	0	0	511	505	232	1018	39	8	
2	0	0	0	0	554	509	233	0	39	8	
3	0	0	0	0	504	509	232	1018	39	8	
4	0	0	0	0	547	508	233	0	39	8	
5	0	0	0	0	506	507	232	1018	39	8	
6	0	0	0	0	545	508	233	0	39	8	
7	0	0	0	0	513	509	232	1018	39	8	
8	0	0	0	0	543	509	233	0	39	8	
9	0	0	0	0	507	506	231	1019	39	8	
10	0	0	0	0	543	508	233	0	39	8	
11	0	0	0	0	508	507	231	1018	39	8	
12	0	0	0	0	549	510	232	0	39	8	
13	0	0	0	0	508	508	231	1018	39	8	
14	0	0	0	0	540	508	232	0	39	8	
15	0	0	0	0	511	507	231	1018	39	8	
0	0	0	0	0	548	508	231	0	39	8	
1	0	0	0	0	508	504	230	1018	39	8	
2	0	0	0	0	548	510	231	0	39	8	
3	0	0	0	0	500	507	230	1018	39	8	
4	0	0	0	0	543	507	231	0	39	8	
5	0	0	0	0	512	510	230	1018	39	8	
6	0	0	0	0	547	514	231	0	39	8	
7	0	0	0	0	498	508	230	1019	39	8	
8	0	0	0	0	544	510	231	0	39	8	
9	0	0	0	0	508	509	230	1019	39	8	
10	0	0	0	0	546	509	231	0	39	8	
11	0	0	0	0	509	511	230	1018	39	8	
12	0	0	0	0	548	508	231	0	39	8	
13	0	0	0	0	508	509	230	1018	39	8	
14	0	0	0	0	544	509	231	0	39	8	
15	0	0	0	0	507	509	230	1018	39	8	
0	0	0	0	0	547	507	231	0	39	8	
1	0	0	0	0	507	511	230	1018	39	8	
2	0	0	0	0	555	511	231	0	39	8	
3	0	0	0	0	508	510	230	1018	39	8	
4	0	0	0	0	546	509	231	0	39	8	
5	0	0	0	0	510	512	230	1018	39	8	
6	0	0	0	0	542	508	231	0	39	8	
7	0	0	0	0	501	508	230	1018	39	8	
8	0	0	0	0	549	509	231	0	39	8	
9	0	0	0	0	499	510	230	1018	39	8	
10	0	0	0	0	544	507	231	0	39	8	
11	0	0	0	0	509	508	230	1018	39	8	
12	0	0	0	0	543	510	231	0	39	8	
13	0	0	0	0	507	507	230	1018	39	8	
14	0	0	0	0	547	508	231	0	39	8	
15	0	0	0	0	509	509	230	1018	39	8	
0	0	0	0	0	540	508	231	0	39	8	
1	0	0	0	0	510	513	230	1019	39	8	
2	0	0	0	0	541	509	231	0	39	8	
3	0	0	0	0	505	506	230	1018	39	8	
4	0	0	0	0	546	510	232	0	39	8	
5	0	0	0	0	513	508	231	1018	39	8	
6	0	0	0	0	543	508	233	0	39	8	
7	0	0	0	0	516	506	232	1018	39	8	
8	0	0	0	0	537	508	234	0	39	8	
9	0	0	0	0	504	508	233	1018	39	8	
10	0	0	0	0	540	507	235	0	39	8	
11	0	0	0	0	509	509	234	1018	39	8	
12	0	0	0	0	545	507	236	0	39	8	
13	0	0	0	0	509	508	235	1018	39	8	
14	0	0	0	0	547	508	236	0	39	8	
15	0	0	0	0	500	504	236	1018	39	8	
0	0	0	0	0	548	504	237	0	39	8	
1	0	0	0	0	505	507	236	1018	39	8	
2	0	0	0	0	543	508	238	0	39	8	
3	0	0	0	0	506	508	237	1018	39	8	
4	0	0	0	0	545	509	238	0	39	8	
5	0	0	0	0	508	509	237	1018	39	8	
6	0	0	0	0	543	504	238	0	39	8	
7	0	0	0	0	512	509	237	1018	39	8	
8	0	0	0	0	536	508	238	0	39	8	
9	0	0	0	0	514	510	237	1018	39	8	
10	0	0	0	0	543	507	238	0	39	8	
11	0	0	0	0	508	507	237	1018	39	8	
12	0	0	0	0	546	509	238	0	39	8	
13	0	0	0	0	507	507	237	1018	39	8	
14	0	0	0	0	539	507	238	0	39	8	
15	0	0	0	0	504	507	236	1018	39	8	
0	0	0	0	0	545	506	238	0	39	8	
1	0	0	0	0	505	506	236	1018	39	8	
2	0	0	0	0	542	507	238	0	39	8	
3	0	0	0	0	500	509	236	1018	39	8	
4	0	0	0	0	542	505	238	0	39	8	
5	0	0	0	0	511	505	236	1019	39	8	
6	0	0	0	0	542	504	237	0	39	8	
7	0	0	0	0	512	509	236	1018	39	8	
8	0	0	0	0	537	507	237	0	39	8	
9	0	0	0	0	508	508	236	1018	39	8	
10	0	0	0	0	538	505	236	0	39	8	
11	0	0	0	0	508	510	235	1018	39	8	
12	0	0	0	0	550	509	236	0	39	8	
13	0	0	0	0	505	508	235	1018	39	8	
14	0	0	0	0	541	511	236	0	39	8	
15	0	0	0	0	500	511	235	1018	39	8	
0	0	0	0	0	547	508	236	0	39	8	
1	0	0	0	0	504	505	234	1018	39	8	
2	0	0	0	0	542	507	235	0	39	8	
3	0	0	0	0	502	510	234	1018	39	8	
4	0	0	0	0	535	507	235	0	39	8	
5	0	0	0	0	504	509	233	1018	39	8	
6	0	0	0	0	546	508	235	0	39	8	
7	0	0	0	0	508	507	233	1018	39	8	
8	0	0	0	0	543	509	235	0	39	8	
9	0	0	0	0	508	509	233	1018	39	8	
10	0	0	0	0	544	509	234	0	39	8	
11	0	0	0	0	507	508	233	1018	39	8	
12	0	0	0	0	550	507	234	0	39	8	
13	0	0	0	0	503	508	233	1018	39	8	
14	0	0	0	0	534	507	234	0	39	8	
15	0	0	0	0	507	508	233	1018	39	8	
0	0	0	0	0	540	508	234	0	39	8	
1	0	0	0	0	503	509	232	1018	39	8	
2	0	0	0	0	548	509	234	0	39	8	
3	0	0	0	0	506	507	232	1018	39	8	
4	0	0	0	0	543	504	234	0	39	8	
5	0	0	0	0	511	511	232	1018	39	8	
6	0	0	0	0	535	508	233	0	39	8	
7	0	0	0	0	499	508	232	1018	39	8	
8	0	0	0	0	540	505	233	0	39	8	
9	0	0	0	0	512	509	232	1018	39	8	
10	0	0	0	0	542	510	233	0	39	8	
11	0	0	0	0	500	508	232	1018	39	8	
12	0	0	0	0	539	507	233	0	39	8	
13	0	0	0	0	506	510	231	1018	39	8	
14	0	0	0	0	539	507	233	0	39	8	
15	0	0	0	0	506	508	232	1019	39	8	
0	0	0	0	0	543	508	233	0	39	8	
1	0	0	0	0	503	508	232	1018	39	8	
2	0	0	0	0	539	508	233	0	39	8	
3	0	0	0	0	508	509	232	1018	39	8	
4	0	0	0	0	538	509	234	0	39	8	
5	0	0	0	0	507	508	232	1018	39	8	
6	0	0	0	0	545	508	233	0	39	8	
7	0	0	0	0	496	509	232	1018	39	8	
8	0	0	0	0	540	507	233	0	39	8	
9	0	0	0	0	513	507	232	1018	39	8	
10	0	0	0	0	536	506	233	0	39	8	
11	0	0	0	0	505	510	232	1018	39	8	
12	0	0	0	0	547	507	233	0	39	8	
13	0	0	0	0	512	507	231	1018	39	8	
14	0	0	0	0	547	506	233	0	39	8	
15	0	0	0	0	500	511	231	1018	39	8	
0	0	0	0	0	539	507	233	0	39	8	
1	0	0	0	0	508	511	231	1018	39	8	
2	0	0	0	0	544	507	233	0	39	8	
3	0	0	0	0	504	508	231	1018	39	8	
4	0	0	0	0	551	506	233	0	39	8	
5	0	0	0	0	500	508	232	1018	39	8	
6	0	0	0	0	541	503	233	0	39	8	
7	0	0	0	0	505	508	232	1018	39	8	
8	0	0	0	0	547	509	234	0	39	8	
9	0	0	0	0	504	509	233	1019	39	8	
10	0	0	0	0	543	507	235	0	39	8	
11	0	0	0	0	514	508	234	1018	39	8	
12	0	0	0	0	540	507	235	0	39	8	
13	0	0	0	0	505	505	234	1018	39	8	
14	0	0	0	0	542	509	236	0	39	8	
15	0	0	0	0	508	507	235	1018	39	8	
0	0	0	0	0	544	508	236	0	39	8	
1	0	0	0	0	508	509	235	1018	39	8	
2	0	0	0	0	537	510	236	0	39	8	
3	0	0	0	0	502	511	235	1018	39	8	
4	0	0	0	0	541	508	236	0	39	8	
5	0	0	0	0	505	506	235	1018	39	8	
6	0	0	0	0	544	505	236	0	39	8	
7	0	0	0	0	504	506	235	1019	39	8	
8	0	0	0	0	546	505	237	0	39	8	
9	0	0	0	0	518	509	235	1018	39	8	
10	0	0	0	0	548	507	237	0	39	8	
11	0	0	0	0	500	508	236	1018	39	8	
12	0	0	0	0	538	506	237	0	39	8	
13	0	0	0	0	504	511	236	1018	39	8	
14	0	0	0	0	542	505	237	0	39	8	
15	0	0	0	0	508	507	235	1018	39	8	
0	0	0	0	0	541	507	237	0	39	8	
1	0	0	0	0	500	510	235	1018	39	8	
2	0	0	0	0	550	506	236	0	39	8	
3	0	0	0	0	505	507	235	1018	39	8	
4	0	0	0	0	535	509	236	0	39	8	
5	0	0	0	0	511	510	235	1018	39	8	
6	0	0	0	0	541	508	236	0	39	8	
7	0	0	0	0	503	507	235	1018	39	8	
8	0	0	0	0	536	509	236	0	39	8	
9	0	0	0	0	506	511	235	1018	39	8	
10	0	0	0	0	540	510	237	0	39	8	
11	0	0	0	0	507	508	236	1019	39	8	
12	0	0	0	0	541	504	237	0	39	8	
13	0	0	0	0	512	506	236	1018	39	8	
14	0	0	0	0	543	506	237	0	39	8	
15	0	0	0	0	508	515	236	1018	39	8	
0	0	0	0	0	537	507	238	0	39	8	
1	0	0	0	0	509	508	236	1018	39	8	
2	0	0	0	0	538	509	238	0	39	8	
3	0	0	0	0	509	509	237	1018	39	8	
4	0	0	0	0	537	508	238	0	39	8	
5	0	0	0	0	507	507	237	1018	39	8	
6	0	0	0	0	545	508	238	0	39	8	
7	0	0	0	0	511	510	237	1019	39	8	
8	0	0	0	0	543	507	239	0	39	8	
9	0	0	0	0	502	506	238	1018	39	8	
10	0	0	0	0	539	507	239	0	39	8	
11	0	0	0	0	497	506	238	1018	39	8	
12	0	0	0	0	539	505	239	0	39	8	
13	0	0	0	0	514	510	238	1019	39	8	
14	0	0	0	0	540	508	240	0	39	8	
15	0	0	0	0	502	510	238	1018	39	8	
0	0	0	0	0	546	505	240	0	39	8	
1	0	0	0	0	510	509	239	1018	39	8	
2	0	0	0	0	551	505	240	0	39	8	
3	0	0	0	0	508	509	239	1018	39	8	
4	0	0	0	0	542	507	240	0	39	8	
5	0	0	0	0	497	510	239	1018	39	8	
6	0	0	0	0	538	505	241	0	39	8	
7	0	0	0	0	507	509	240	1018	39	8	
8	0	0	0	0	542	506	241	0	39	8	
9	0	0	0	0	509	510	240	1018	39	8	
10	0	0	0	0	533	508	241	0	39	8	
11	0	0	0	0	507	510	240	1018	39	8	
12	0	0	0	0	540	507	241	0	39	8	
13	0	0	0	0	505	511	240	1018	39	8	
14	0	0	0	0	536	506	242	0	39	8	
15	0	0	0	0	504	508	241	1018	39	8	
0	0	0	0	0	536	508	242	0	39	8	
1	0	0	0	0	503	508	241	1018	39	8	
2	0	0	0	0	547	504	242	0	39	8	
3	0	0	0	0	514	506	241	1018	39	8	
4	0	0	0	0	534	504	243	0	39	8	
5	0	0	0	0	506	509	241	1018	39	8	
6	0	0	0	0	542	507	243	0	39	8	
7	0	0	0	0	496	507	242	1018	39	8	
8	0	0	0	0	545	505	243	0	39	8	
9	0	0	0	0	511	510	242	1018	39	8	
10	0	0	0	0	536	510	244	0	39	8	
11	0	0	0	0	503	513	243	1019	39	8	
12	0	0	0	0	540	506	244	0	39	8	
13	0	0	0	0	506	508	243	1018	39	8	
14	0	0	0	0	536	505	244	0	39	8	
15	0	0	0	0	507	509	243	1018	39	8	
0	0	0	0	0	536	506	245	0	39	8	
1	0	0	0	0	509	508	243	1018	39	8	
2	0	0	0	0	536	506	245	0	39	8	
3	0	0	0	0	500	510	244	1018	39	8	
4	0	0	0	0	541	508	245	0	39	8	
5	0	0	0	0	508	508	244	1018	39	8	
6	0	0	0	0	535	506	246	0	39	8	
7	0	0	0	0	502	507	244	1018	39	8	
8	0	0	0	0	540	505	246	0	39	8	
9	0	0	0	0	504	511	244	1018	39	8	
10	0	0	0	0	543	509	246	0	39	8	
11	0	0	0	0	505	510	245	1018	39	8	
12	0	0	0	0	536	509	246	0	39	8	
13	0	0	0	0	499	508	244	1018	39	8	
14	0	0	0	0	542	504	246	0	39	8	
15	0	0	0	0	503	507	244	1018	39	8	
0	0	0	0	0	534	505	246	0	39	8	
1	0	0	0	0	504	508	244	1018	39	8	
2	0	0	0	0	535	506	245	0	39	8	
3	0	0	0	0	512	509	244	1018	39	8	
4	0	0	0	0	539	509	245	0	39	8	
5	0	0	0	0	511	508	244	1018	39	8	
6	0	0	0	0	541	507	245	0	39	8	
7	0	0	0	0	503	510	243	1018	39	8	
8	0	0	0	0	531	507	244	0	39	8	
9	0	0	0	0	501	508	242	1018	39	8	
10	0	0	0	0	535	504	243	0	39	8	
11	0	0	0	0	504	509	241	1018	39	8	
12	0	0	0	0	540	507	242	0	39	8	
13	0	0	0	0	508	508	241	1018	39	8	
14	0	0	0	0	539	508	241	0	39	8	
15	0	0	0	0	510	510	240	1018	39	8	
0	0	0	0	0	542	509	241	0	39	8	
1	0	0	0	0	511	510	239	1018	39	8	
2	0	0	0	0	544	507	240	0	39	8	
3	0	0	0	0	513	511	238	1018	39	8	
4	0	0	0	0	536	509	240	0	39	8	
5	0	0	0	0	507	509	238	1018	39	8	
6	0	0	0	0	539	504	239	0	39	8	
7	0	0	0	0	510	509	238	1018	39	8	
8	0	0	0	0	539	503	239	0	39	8	
9	0	0	0	0	511	507	238	1018	39	8	
10	0	0	0	0	543	505	239	0	39	8	
11	0	0	0	0	509	506	238	1018	39	8	
12	0	0	0	0	539	509	239	0	39	8	
13	0	0	0	0	502	507	238	1018	39	8	
14	0	0	0	0	537	506	239	0	39	8	
15	0	0	0	0	511	512	238	1018	39	8	
0	0	0	0	0	543	508	239	0	39	8	
1	0	0	0	0	509	509	238	1018	39	8	
2	0	0	0	0	534	504	239	0	39	8	
3	0	0	0	0	509	506	238	1018	39	8	
4	0	0	0	0	539	507	239	0	39	8	
5	0	0	0	0	496	510	238	1018	39	8	
6	0	0	0	0	538	506	239	0	39	8	
7	0	0	0	0	504	508	238	1018	39	8	
8	0	0	0	0	537	504	239	0	39	8	
9	0	0	0	0	505	504	238	1018	39	8	
10	0	0	0	0	539	505	239	0	39	8	
11	0	0	0	0	510	508	238	1018	39	8	
12	0	0	0	0	540	509	239	0	39	8	
13	0	0	0	0	499	511	238	1018	39	8	
14	0	0	0	0	536	506	239	0	39	8	
15	0	0	0	0	509	508	237	1018	39	8	
0	0	0	0	0	540	505	239	0	39	8	
1	0	0	0	0	505	509	237	1018	39	8	
2	0	0	0	0	534	508	238	0	39	8	
3	0	0	0	0	501	508	237	1018	39	8	
4	0	0	0	0	536	504	238	0	39	8	
5	0	0	0	0	508	508	237	1018	39	8	
6	0	0	0	0	547	506	238	0	39	8	
7	0	0	0	0	501	509	237	1018	39	8	
8	0	0	0	0	547	502	238	0	39	8	
9	0	0	0	0	505	510	237	1018	39	8	
10	0	0	0	0	540	504	239	0	39	8	
11	0	0	0	0	512	508	238	1018	39	8	
12	0	0	0	0	533	506	239	0	39	8	
13	0	0	0	0	512	508	238	1018	39	8	
14	0	0	0	0	532	505	240	0	39	8	
15	0	0	0	0	500	510	239	1018	39	8	
0	0	0	0	0	536	504	240	0	39	8	
1	0	0	0	0	511	510	239	1018	39	8	
2	0	0	0	0	543	506	240	0	39	8	
3	0	0	0	0	512	510	239	1018	39	8	
4	0	0	0	0	535	504	241	0	39	8	
5	0	0	0	0	504	506	240	1018	39	8	
6	0	0	0	0	541	502	241	0	39	8	
7	0	0	0	0	509	512	240	1018	39	8	
8	0	0	0	0	540	508	242	0	39	8	
9	0	0	0	0	503	509	241	1018	39	8	
10	0	0	0	0	543	509	242	0	39	8	
11	0	0	0	0	506	510	241	1018	39	8	
12	0	0	0	0	541	503	243	0	39	8	
13	0	0	0	0	506	509	241	1018	39	8	
14	0	0	0	0	541	504	243	0	39	8	
15	0	0	0	0	510	511	241	1018	39	8	
0	0	0	0	0	533	509	243	0	39	8	
1	0	0	0	0	505	510	242	1018	39	8	
2	0	0	0	0	534	505	243	0	39	8	
3	0	0	0	0	510	509	242	1018	39	8	
4	0	0	0	0	541	503	243	0	39	8	
5	0	0	0	0	500	509	241	1018	39	8	
6	0	0	0	0	544	505	243	0	39	8	
7	0	0	0	0	503	510	241	1019	39	8	
8	0	0	0	0	540	508	243	0	39	8	
9	0	0	0	0	509	512	242	1018	39	8	
10	0	0	0	0	544	503	243	0	39	8	
11	0	0	0	0	505	505	242	1018	39	8	
12	0	0	0	0	544	505	243	0	39	8	
13	0	0	0	0	509	507	242	1018	39	8	
14	0	0	0	0	543	508	243	0	39	8	
15	0	0	0	0	506	509	242	1019	39	8	
0	0	0	0	0	542	505	244	0	39	8	
1	0	0	0	0	507	508	243	1018	39	8	
2	0	0	0	0	542	508	244	0	39	8	
3	0	0	0	0	503	509	243	1018	39	8	
4	0	0	0	0	534	505	244	0	39	8	
5	0	0	0	0	512	510	243	1018	39	8	
6	0	0	0	0	543	507	244	0	39	8	
7	0	0	0	0	514	511	243	1018	39	8	
8	0	0	0	0	547	504	244	0	39	8	
9	0	0	0	0	495	510	243	1018	39	8	
10	0	0	0	0	531	506	244	0	39	8	
11	0	0	0	0	505	511	243	1019	39	8	
12	0	0	0	0	545	506	244	0	39	8	
13	0	0	0	0	510	508	243	1018	39	8	
14	0	0	0	0	547	507	244	0	39	8	
15	0	0	0	0	507	505	243	1019	39	8	
0	0	0	0	0	536	507	245	0	39	8	
1	0	0	0	0	505	507	244	1018	39	8	
2	0	0	0	0	537	504	245	0	39	8	
3	0	0	0	0	497	509	244	1018	39	8	
4	0	0	0	0	540	508	246	0	39	8	
5	0	0	0	0	505	509	244	1018	39	8	
6	0	0	0	0	536	505	246	0	39	8	
7	0	0	0	0	505	509	244	1018	39	8	
8	0	0	0	0	542	504	246	0	39	8	
9	0	0	0	0	507	508	245	1018	39	8	
10	0	0	0	0	532	505	246	0	39	8	
11	0	0	0	0	510	509	245	1018	39	8	
12	0	0	0	0	543	505	247	0	39	8	
13	0	0	0	0	506	509	246	1018	39	8	
14	0	0	0	0	544	507	247	0	39	8	
15	0	0	0	0	507	511	246	1018	39	8	
0	0	0	0	0	540	505	248	0	39	8	
1	0	0	0	0	507	510	247	1018	39	8	
2	0	0	0	0	543	506	248	0	39	8	
3	0	0	0	0	503	508	247	1018	39	8	
4	0	0	0	0	534	508	248	0	39	8	
5	0	0	0	0	505	510	247	1018	39	8	
6	0	0	0	0	541	505	248	0	39	8	
7	0	0	0	0	501	508	247	1019	39	8	
8	0	0	0	0	545	506	249	0	39	8	
9	0	0	0	0	506	510	248	1018	39	8	
10	0	0	0	0	543	508	249	0	39	8	
11	0	0	0	0	506	509	248	1018	39	8	
12	0	0	0	0	542	508	249	0	39	8	
13	0	0	0	0	501	509	248	1018	39	8	
14	0	0	0	0	540	504	249	0	39	8	
15	0	0	0	0	502	511	248	1019	39	8	
0	0	0	0	0	546	505	249	0	39	8	
1	0	0	0	0	503	509	248	1018	39	8	
2	0	0	0	0	536	503	249	0	39	8	
3	0	0	0	0	508	506	248	1018	39	8	
4	0	0	0	0	537	507	249	0	39	8	
5	0	0	0	0	506	510	247	1018	39	8	
6	0	0	0	0	540	505	248	0	39	8	
7	0	0	0	0	503	508	247	1018	39	8	
8	0	0	0	0	536	503	248	0	39	8	
9	0	0	0	0	506	507	247	1018	39	8	
10	0	0	0	0	547	502	248	0	39	8	
11	0	0	0	0	511	508	247	1018	39	8	
12	0	0	0	0	543	507	248	0	39	8	
13	0	0	0	0	498	508	247	1018	39	8	
14	0	0	0	0	538	503	248	0	39	8	
15	0	0	0	0	514	508	246	1018	39	8	
0	0	0	0	0	535	505	247	0	39	7	
1	0	0	0	0	505	510	246	1018	39	7	
2	0	0	0	0	548	504	247	0	39	7	
3	0	0	0	0	502	511	245	1019	39	7	
4	0	0	0	0	538	505	247	0	39	7	
5	0	0	0	0	504	510	245	1018	39	6	
6	0	0	0	0	543	507	246	0	39	6	
7	0	0	0	0	509	510	244	1018	39	6	
8	0	0	0	0	544	508	246	0	39	6	
9	0	0	0	0	507	507	244	1018	39	6	
10	0	0	0	0	539	504	245	0	39	6	
11	0	0	0	0	506	508	244	1018	39	6	
12	0	0	0	0	540	508	245	0	39	6	
13	0	0	0	0	505	511	244	1018	39	6	
14	0	0	0	0	536	503	245	0	39	6	
15	0	0	0	0	507	511	243	1018	39	6	
0	0	0	0	0	536	506	245	0	39	6	
1	0	0	0	0	502	510	243	1018	39	6	
2	0	0	0	0	542	505	244	0	39	6	
3	0	0	0	0	507	509	243	1018	39	6	
4	0	0	0	0	548	507	244	0	39	6	
5	0	0	0	0	496	511	243	1018	39	7	
6	0	0	0	0	545	507	244	0	39	7	
7	0	0	0	0	508	511	243	1018	39	7	
8	0	0	0	0	551	504	244	0	39	7	
9	0	0	0	0	507	509	243	1018	39	8	
10	0	0	0	0	536	505	244	0	39	8	
11	0	0	0	0	500	510	243	1018	39	8	
12	0	0	0	0	543	504	244	0	39	8	
13	0	0	0	0	504	511	243	1018	39	8	
14	0	0	0	0	536	505	244	0	39	8	
15	0	0	0	0	510	509	242	1018	39	8	
0	0	0	0	0	539	503	244	0	39	8	
1	0	0	0	0	507	510	243	1018	39	8	
2	0	0	0	0	534	504	243	0	39	8	
3	0	0	0	0	507	512	242	1018	39	8	
4	0	0	0	0	541	503	243	0	39	8	
5	0	0	0	0	506	509	242	1018	39	8	
6	0	0	0	0	540	501	243	0	39	8	
7	0	0	0	0	499	508	242	1018	39	8	
8	0	0	0	0	537	503	243	0	39	8	
9	0	0	0	0	501	508	242	1018	39	8	
10	0	0	0	0	545	506	243	0	39	8	
11	0	0	0	0	507	511	242	1018	39	8	
12	0	0	0	0	543	507	243	0	39	8	
13	0	0	0	0	507	508	242	1019	39	8	
14	0	0	0	0	547	503	243	0	39	8	
15	0	0	0	0	508	510	242	1018	39	8	
0	0	0	0	0	545	504	243	0	39	8	
1	0	0	0	0	499	511	242	1018	39	8	
2	0	0	0	0	539	504	243	0	39	8	
3	0	0	0	0	507	509	242	1018	39	8	
4	0	0	0	0	536	504	243	0	39	8	
5	0	0	0	0	506	511	242	1018	39	8	
6	0	0	0	0	545	505	243	0	39	8	
7	0	0	0	0	502	510	242	1018	39	8	
8	0	0	0	0	539	502	243	0	39	8	
9	0	0	0	0	500	509	242	1018	39	8	
10	0	0	0	0	543	505	243	0	39	8	
11	0	0	0	0	506	507	242	1018	39	8	
12	0	0	0	0	540	507	243	0	39	8	
13	0	0	0	0	510	510	242	1018	39	8	
14	0	0	0	0	543	506	243	0	39	8	
15	0	0	0	0	498	510	241	1018	39	8	
0	0	0	0	0	539	507	243	0	39	8	
1	0	0	0	0	509	511	241	1018	39	8	
2	0	0	0	0	540	505	243	0	39	8	
3	0	0	0	0	506	510	241	1018	39	8	
4	0	0	0	0	545	505	243	0	39	8	
5	0	0	0	0	505	512	241	1018	39	8	
6	0	0	0	0	543	506	242	0	39	8	
7	0	0	0	0	508	507	241	1019	39	8	
8	0	0	0	0	539	502	243	0	39	8	
9	0	0	0	0	507	511	241	1018	39	8	
10	0	0	0	0	545	506	243	0	39	8	
11	0	0	0	0	499	508	241	1018	39	8	
12	0	0	0	0	543	504	243	0	39	8	
13	0	0	0	0	499	507	242	1018	39	8	
14	0	0	0	0	536	505	243	0	39	8	
15	0	0	0	0	502	511	242	1018	39	8	
0	0	0	0	0	538	506	244	0	39	8	
1	0	0	0	0	504	507	243	1018	39	8	
2	0	0	0	0	543	503	244	0	39	8	
3	0	0	0	0	506	508	244	1018	39	8	
4	0	0	0	0	537	499	246	0	39	8	
5	0	0	0	0	504	509	245	1018	39	8	
6	0	0	0	0	536	502	247	0	39	8	
7	0	0	0	0	500	508	246	1018	39	8	
8	0	0	0	0	541	504	248	0	39	8	
9	0	0	0	0	507	509	247	1018	39	8	
10	0	0	0	0	533	506	249	0	39	8	
11	0	0	0	0	505	511	248	1018	39	8	
12	0	0	0	0	543	504	250	0	39	8	
13	0	0	0	0	504	508	249	1019	39	8	
14	0	0	0	0	545	504	251	0	39	8	
15	0	0	0	0	502	510	250	1018	39	8	
0	0	0	0	0	540	503	251	0	39	8	
1	0	0	0	0	503	510	250	1018	39	8	
2	0	0	0	0	548	502	252	0	39	8	
3	0	0	0	0	504	511	251	1018	39	8	
4	0	0	0	0	542	504	252	0	39	8	
5	0	0	0	0	504	509	251	1018	39	8	
6	0	0	0	0	545	504	252	0	39	8	
7	0	0	0	0	508	510	251	1018	39	8	
8	0	0	0	0	538	503	252	0	39	8	
9	0	0	0	0	503	511	251	1018	39	8	
10	0	0	0	0	534	506	252	0	39	8	
11	0	0	0	0	507	511	251	1018	39	8	
12	0	0	0	0	542	503	252	0	39	8	
13	0	0	0	0	507	508	251	1018	39	8	
14	0	0	0	0	543	504	252	0	39	8	
15	0	0	0	0	503	510	251	1018	39	8	
0	0	0	0	0	542	506	252	0	39	8	
1	0	0	0	0	507	511	250	1018	39	8	
2	0	0	0	0	542	507	251	0	39	8	
3	0	0	0	0	500	509	250	1018	39	8	
4	0	0	0	0	543	507	251	0	39	8	
5	0	0	0	0	498	507	250	1018	39	8	
6	0	0	0	0	537	504	251	0	39	8	
7	0	0	0	0	504	512	251	1018	39	8	
8	0	0	0	0	544	503	251	0	39	8	
9	0	0	0	0	504	511	250	1019	39	8	
10	0	0	0	0	537	501	251	0	39	8	
11	0	0	0	0	498	512	250	1018	39	8	
12	0	0	0	0	540	507	251	0	39	8	
13	0	0	0	0	501	513	250	1018	39	8	
14	0	0	0	0	540	504	251	0	39	8	
15	0	0	0	0	498	509	249	1018	39	8	
0	0	0	0	0	546	505	251	0	39	8	
1	0	0	0	0	507	510	249	1018	39	8	
2	0	0	0	0	540	506	251	0	39	8	
3	0	0	0	0	503	511	249	1018	39	8	
4	0	0	0	0	535	506	250	0	39	8	
5	0	0	0	0	501	511	249	1018	39	8	
6	0	0	0	0	536	502	250	0	39	8	
7	0	0	0	0	504	508	248	1018	39	8	
8	0	0	0	0	540	507	250	0	39	8	
9	0	0	0	0	505	509	248	1018	39	8	
10	0	0	0	0	536	504	249	0	39	8	
11	0	0	0	0	508	510	248	1018	39	8	
12	0	0	0	0	541	505	249	0	39	8	
13	0	0	0	0	501	507	247	1018	39	8	
14	0	0	0	0	541	505	248	0	39	8	
15	0	0	0	0	502	508	247	1018	39	8	
0	0	0	0	0	530	503	247	0	39	8	
1	0	0	0	0	507	513	245	1018	39	8	
2	0	0	0	0	534	505	246	0	39	8	
3	0	0	0	0	504	509	244	1018	39	8	
4	0	0	0	0	537	506	245	0	39	8	
5	0	0	0	0	504	508	243	1018	39	8	
6	0	0	0	0	538	502	244	0	39	8	
7	0	0	0	0	508	506	242	1018	39	8	
8	0	0	0	0	542	502	243	0	39	8	
9	0	0	0	0	501	512	241	1018	39	8	
10	0	0	0	0	541	505	242	0	39	8	
11	0	0	0	0	504	510	240	1018	39	8	
12	0	0	0	0	539	505	242	0	39	8	
13	0	0	0	0	505	508	240	1018	39	8	
14	0	0	0	0	540	504	241	0	39	8	
15	0	0	0	0	496	508	240	1018	39	8	
0	0	0	0	0	536	504	241	0	39	8	
1	0	0	0	0	509	507	240	1018	39	8	
2	0	0	0	0	536	507	241	0	39	8	
3	0	0	0	0	504	509	240	1018	39	8	
4	0	0	0	0	532	502	241	0	39	8	
5	0	0	0	0	499	509	240	1018	39	8	
6	0	0	0	0	539	504	241	0	39	8	
7	0	0	0	0	499	508	240	1018	39	8	
8	0	0	0	0	543	500	241	0	39	8	
9	0	0	0	0	504	508	240	1018	39	8	
10	0	0	0	0	541	504	241	0	39	8	
11	0	0	0	0	506	510	240	1018	39	8	
12	0	0	0	0	539	501	241	0	39	8	
13	0	0	0	0	499	512	240	1018	39	8	
14	0	0	0	0	540	503	241	0	39	8	
15	0	0	0	0	508	509	240	1018	39	8	
0	0	0	0	0	534	505	242	0	39	8	
1	0	0	0	0	499	511	240	1018	39	8	
2	0	0	0	0	547	504	242	0	39	8	
3	0	0	0	0	503	514	241	1018	39	8	
4	0	0	0	0	542	507	242	0	39	8	
5	0	0	0	0	502	511	241	1018	39	8	
6	0	0	0	0	535	504	242	0	39	8	
7	0	0	0	0	503	508	241	1018	39	8	
8	0	0	0	0	545	504	242	0	39	8	
9	0	0	0	0	501	508	241	1018	39	8	
10	0	0	0	0	541	506	242	0	39	8	
11	0	0	0	0	501	508	241	1018	39	8	
12	0	0	0	0	545	502	242	0	39	8	
13	0	0	0	0	502	512	241	1018	39	8	
14	0	0	0	0	540	504	242	0	39	8	
15	0	0	0	0	497	509	241	1018	39	8	
0	0	0	0	0	534	501	243	0	39	8	
1	0	0	0	0	507	508	241	1018	39	8	
2	0	0	0	0	540	504	243	0	39	8	
3	0	0	0	0	499	510	241	1018	39	8	
4	0	0	0	0	546	503	243	0	39	8	
5	0	0	0	0	502	510	241	1018	39	8	
6	0	0	0	0	542	506	242	0	39	8	
7	0	0	0	0	494	512	241	1018	39	8	
8	0	0	0	0	538	504	243	0	39	8	
9	0	0	0	0	501	508	241	1018	39	8	
10	0	0	0	0	541	504	243	0	39	8	
11	0	0	0	0	505	510	241	1019	39	8	
12	0	0	0	0	546	505	242	0	39	8	
13	0	0	0	0	503	511	241	1018	39	8	
14	0	0	0	0	542	505	242	0	39	8	
15	0	0	0	0	504	510	241	1018	39	8	
0	0	0	0	0	540	504	242	0	39	8	
1	0	0	0	0	498	510	241	1018	39	8	
2	0	0	0	0	539	507	241	0	39	8	
3	0	0	0	0	501	507	240	1018	39	8	
4	0	0	0	0	537	503	241	0	39	8	
5	0	0	0	0	503	510	240	1018	39	8	
6	0	0	0	0	544	503	241	0	39	8	
7	0	0	0	0	500	508	240	1018	39	8	
8	0	0	0	0	539	504	241	0	39	8	
9	0	0	0	0	499	510	239	1018	39	8	
10	0	0	0	0	540	504	240	0	39	8	
11	0	0	0	0	507	511	239	1018	39	8	
12	0	0	0	0	536	503	240	0	39	8	
13	0	0	0	0	505	510	239	1019	39	8	
14	0	0	0	0	536	504	240	0	39	8	
15	0	0	0	0	502	510	239	1018	39	8	
0	0	0	0	0	544	505	240	0	39	8	
1	0	0	0	0	500	509	238	1018	39	8	
2	0	0	0	0	547	505	239	0	39	8	
3	0	0	0	0	501	510	238	1018	39	8	
4	0	0	0	0	538	506	239	0	39	8	
5	0	0	0	0	499	513	238	1018	39	8	
6	0	0	0	0	540	502	239	0	39	8	
7	0	0	0	0	503	509	237	1018	39	8	
8	0	0	0	0	543	507	238	0	39	8	
9	0	0	0	0	502	512	237	1018	39	8	
10	0	0	0	0	542	504	238	0	39	8	
11	0	0	0	0	503	510	237	1018	39	8	
12	0	0	0	0	540	505	238	0	39	8	
13	0	0	0	0	498	508	237	1018	39	8	
14	0	0	0	0	547	502	237	0	39	8	
15	0	0	0	0	511	509	236	1018	39	8	
0	0	0	0	0	537	502	237	0	39	8	
1	0	0	0	0	503	507	236	1018	39	8	
2	0	0	0	0	545	504	237	0	39	8	
3	0	0	0	0	501	510	235	1018	39	8	
4	0	0	0	0	537	503	237	0	39	8	
5	0	0	0	0	502	511	235	1018	39	8	
6	0	0	0	0	540	504	236	0	39	8	
7	0	0	0	0	496	506	235	1018	39	8	
8	0	0	0	0	543	502	236	0	39	8	
9	0	0	0	0	502	512	235	1018	39	8	
10	0	0	0	0	537	505	236	0	39	8	
11	0	0	0	0	507	513	235	1018	39	8	
12	0	0	0	0	540	505	236	0	39	8	
13	0	0	0	0	505	512	235	1018	39	8	
14	0	0	0	0	542	501	236	0	39	8	
15	0	0	0	0	499	508	235	1018	39	8	
0	0	0	0	0	534	500	236	0	39	8	
1	0	0	0	0	504	508	234	1018	39	8	
2	0	0	0	0	538	505	236	0	39	8	
3	0	0	0	0	497	510	234	1018	39	8	
4	0	0	0	0	537	504	236	0	39	8	
5	0	0	0	0	494	510	234	1018	39	8	
6	0	0	0	0	540	501	236	0	39	8	
7	0	0	0	0	495	510	235	1018	39	8	
8	0	0	0	0	535	508	236	0	39	8	
9	0	0	0	0	494	511	234	1018	39	8	
10	0	0	0	0	542	504	236	0	39	8	
11	0	0	0	0	501	509	236	1019	39	8	
12	0	0	0	0	540	502	237	0	39	8	
13	0	0	0	0	500	510	236	1018	39	8	
14	0	0	0	0	541	505	238	0	39	8	
15	0	0	0	0	497	511	238	1018	39	8	
0	0	0	0	0	546	499	240	0	39	8	
1	0	0	0	0	499	510	239	1018	39	8	
2	0	0	0	0	534	500	241	0	39	8	
3	0	0	0	0	502	509	241	1018	39	8	
4	0	0	0	0	539	506	243	0	39	8	
5	0	0	0	0	505	511	242	1018	39	8	
6	0	0	0	0	544	504	244	0	39	8	
7	0	0	0	0	499	512	243	1018	39	8	
8	0	0	0	0	533	505	245	0	39	8	
9	0	0	0	0	496	510	244	1018	39	8	
10	0	0	0	0	539	505	245	0	39	8	
11	0	0	0	0	494	510	244	1019	39	8	
12	0	0	0	0	538	504	246	0	39	8	
13	0	0	0	0	502	509	245	1018	39	8	
14	0	0	0	0	536	504	246	0	39	8	
15	0	0	0	0	495	511	245	1018	39	8	
0	0	0	0	0	540	504	247	0	39	8	
1	0	0	0	0	503	509	246	1018	39	8	
2	0	0	0	0	543	504	247	0	39	8	
3	0	0	0	0	494	510	246	1018	39	8	
4	0	0	0	0	535	505	247	0	39	8	
5	0	0	0	0	501	510	246	1018	39	8	
6	0	0	0	0	543	502	247	0	39	8	
7	0	0	0	0	496	508	246	1018	39	8	
8	0	0	0	0	540	502	247	0	39	8	
9	0	0	0	0	496	509	245	1018	39	8	
10	0	0	0	0	539	504	246	0	39	8	
11	0	0	0	0	496	511	245	1018	39	8	
12	0	0	0	0	544	503	246	0	39	8	
13	0	0	0	0	495	512	244	1018	39	8	
14	0	0	0	0	541	504	245	0	39	8	
15	0	0	0	0	496	512	244	1018	39	8	
0	0	0	0	0	542	504	245	0	39	8	
1	0	0	0	0	497	510	243	1018	39	8	
2	0	0	0	0	539	503	244	0	39	8	
3	0	0	0	0	495	511	243	1018	39	8	
4	0	0	0	0	535	505	244	0	39	8	
5	0	0	0	0	501	509	243	1018	39	8	
6	0	0	0	0	541	502	244	0	39	8	
7	0	0	0	0	502	510	243	1018	39	8	
8	0	0	0	0	538	506	244	0	39	8	
9	0	0	0	0	498	509	243	1019	39	8	
10	0	0	0	0	544	505	243	0	39	8	
11	0	0	0	0	504	511	242	1018	39	8	
12	0	0	0	0	541	503	243	0	39	8	
13	0	0	0	0	512	511	242	1018	39	8	
14	0	0	0	0	536	501	243	0	39	8	
15	0	0	0	0	497	511	242	1018	39	8	
0	0	0	0	0	537	502	243	0	39	8	
1	0	0	0	0	500	512	241	1018	39	8	
2	0	0	0	0	536	503	242	0	39	8	
3	0	0	0	0	494	510	241	1018	39	8	
4	0	0	0	0	530	501	242	0	39	8	
5	0	0	0	0	502	510	241	1018	39	8	
6	0	0	0	0	543	504	242	0	39	8	
7	0	0	0	0	492	513	240	1018	39	8	
8	0	0	0	0	543	504	241	0	39	8	
9	0	0	0	0	498	512	240	1018	39	8	
10	0	0	0	0	540	505	241	0	39	8	
11	0	0	0	0	501	510	240	1018	39	8	
12	0	0	0	0	540	499	241	0	39	8	
13	0	0	0	0	499	507	240	1018	39	8	
14	0	0	0	0	534	500	241	0	39	8	
15	0	0	0	0	498	510	240	1018	39	8	
0	0	0	0	0	539	504	241	0	39	8	
1	0	0	0	0	504	506	240	1019	39	8	
2	0	0	0	0	542	502	241	0	39	8	
3	0	0	0	0	493	512	240	1018	39	8	
4	0	0	0	0	538	505	241	0	39	8	
5	0	0	0	0	503	511	240	1018	39	8	
6	0	0	0	0	540	502	241	0	39	8	
7	0	0	0	0	501	511	241	1018	39	8	
8	0	0	0	0	534	502	242	0	39	8	
9	0	0	0	0	501	508	242	1018	39	8	
10	0	0	0	0	536	501	243	0	39	8	
11	0	0	0	0	495	508	242	1018	39	8	
12	0	0	0	0	537	504	244	0	39	8	
13	0	0	0	0	502	511	243	1018	39	8	
14	0	0	0	0	536	504	244	0	39	8	
15	0	0	0	0	501	511	243	1018	39	8	
0	0	0	0	0	542	503	245	0	39	8	
1	0	0	0	0	504	515	244	1018	39	8	
2	0	0	0	0	536	504	245	0	39	8	
3	0	0	0	0	504	512	244	1018	39	8	
4	0	0	0	0	540	504	246	0	39	8	
5	0	0	0	0	496	510	244	1018	39	8	
6	0	0	0	0	537	503	246	0	39	8	
7	0	0	0	0	499	511	245	1018	39	8	
8	0	0	0	0	541	504	246	0	39	8	
9	0	0	0	0	498	512	245	1018	39	8	
10	0	0	0	0	539	504	246	0	39	8	
11	0	0	0	0	499	511	245	1018	39	8	
12	0	0	0	0	531	503	246	0	39	8	
13	0	0	0	0	497	512	245	1018	39	8	
14	0	0	0	0	536	505	246	0	39	8	
15	0	0	0	0	489	509	245	1018	39	8	
0	0	0	0	0	541	503	245	0	39	8	
1	0	0	0	0	490	510	244	1018	39	8	
2	0	0	0	0	538	502	244	0	39	8	
3	0	0	0	0	499	510	243	1018	39	8	
4	0	0	0	0	532	501	244	0	39	8	
5	0	0	0	0	497	510	243	1018	39	8	
6	0	0	0	0	538	505	243	0	39	8	
7	0	0	0	0	496	514	242	1018	39	8	
8	0	0	0	0	529	505	243	0	39	8	
9	0	0	0	0	503	510	242	1018	39	8	
10	0	0	0	0	540	500	243	0	39	8	
11	0	0	0	0	489	511	242	1018	39	8	
12	0	0	0	0	536	504	243	0	39	8	
13	0	0	0	0	499	511	242	1018	39	8	
14	0	0	0	0	539	505	243	0	39	8	
15	0	0	0	0	500	512	242	1018	39	8	
0	0	0	0	0	533	499	243	0	39	8	
1	0	0	0	0	500	509	243	1018	39	8	
2	0	0	0	0	535	503	244	0	39	8	
3	0	0	0	0	499	513	243	1018	39	8	
4	0	0	0	0	534	503	244	0	39	8	
5	0	0	0	0	495	510	243	1018	39	8	
6	0	0	0	0	535	500	244	0	39	8	
7	0	0	0	0	497	512	244	1018	39	8	
8	0	0	0	0	542	506	245	0	39	8	
9	0	0	0	0	507	511	244	1018	39	8	
10	0	0	0	0	533	504	245	0	39	8	
11	0	0	0	0	493	512	245	1018	39	8	
12	0	0	0	0	543	499	246	0	39	8	
13	0	0	0	0	495	509	245	1018	39	8	
14	0	0	0	0	534	501	246	0	39	8	
15	0	0	0	0	503	508	245	1018	39	8	
0	0	0	0	0	532	501	247	0	39	8	
1	0	0	0	0	502	513	246	1018	39	8	
2	0	0	0	0	541	507	247	0	39	8	
3	0	0	0	0	498	512	246	1018	39	8	
4	0	0	0	0	529	503	247	0	39	8	
5	0	0	0	0	499	511	246	1018	39	8	
6	0	0	0	0	534	504	247	0	39	8	
7	0	0	0	0	496	510	247	1018	39	8	
8	0	0	0	0	540	500	248	0	39	8	
9	0	0	0	0	496	510	247	1018	39	8	
10	0	0	0	0	534	503	248	0	39	8	
11	0	0	0	0	493	513	248	1018	39	8	
12	0	0	0	0	538	500	249	0	39	8	
13	0	0	0	0	494	508	248	1018	39	8	
14	0	0	0	0	536	501	249	0	39	8	
15	0	0	0	0	496	510	248	1018	39	8	
0	0	0	0	0	537	505	249	0	39	8	
1	0	0	0	0	506	515	249	1018	39	8	
2	0	0	0	0	534	503	250	0	39	8	
3	0	0	0	0	500	508	249	1018	39	8	
4	0	0	0	0	528	502	251	0	39	8	
5	0	0	0	0	500	511	251	1018	39	8	
6	0	0	0	0	537	501	252	0	39	8	
7	0	0	0	0	499	510	252	1018	39	8	
8	0	0	0	0	542	502	253	0	39	8	
9	0	0	0	0	499	511	252	1018	39	8	
10	0	0	0	0	532	501	253	0	39	8	
11	0	0	0	0	508	512	252	1018	39	8	
12	0	0	0	0	535	504	253	0	39	8	
13	0	0	0	0	500	511	252	1018	39	8	
14	0	0	0	0	537	504	253	0	39	8	
15	0	0	0	0	499	510	252	1018	39	8	
0	0	0	0	0	539	502	252	0	39	8	
1	0	0	0	0	504	511	251	1018	39	8	
2	0	0	0	0	530	503	251	0	39	8	
3	0	0	0	0	497	511	249	1018	39	8	
4	0	0	0	0	533	502	250	0	39	8	
5	0	0	0	0	503	511	248	1018	39	8	
6	0	0	0	0	538	505	249	0	39	8	
7	0	0	0	0	492	511	248	1018	39	8	
8	0	0	0	0	532	504	248	0	39	8	
9	0	0	0	0	496	512	247	1018	39	8	
10	0	0	0	0	534	504	247	0	39	8	
11	0	0	0	0	505	513	246	1018	39	8	
12	0	0	0	0	529	503	247	0	39	8	
13	0	0	0	0	502	512	246	1018	39	8	
14	0	0	0	0	536	502	246	0	39	8	
15	0	0	0	0	498	512	245	1018	39	8	
0	0	0	0	0	534	503	246	0	39	8	
1	0	0	0	0	494	511	244	1018	39	8	
2	0	0	0	0	527	506	245	0	39	8	
3	0	0	0	0	498	514	244	1018	39	8	
4	0	0	0	0	534	504	245	0	39	7	
5	0	0	0	0	500	512	243	1018	39	7	
6	0	0	0	0	527	504	244	0	39	7	
7	0	0	0	0	507	510	243	1018	39	7	
8	0	0	0	0	529	501	243	0	39	7	
9	0	0	0	0	501	512	242	1018	39	7	
10	0	0	0	0	529	505	243	0	39	7	
11	0	0	0	0	499	511	242	1018	39	7	
12	0	0	0	0	531	499	243	0	39	7	
13	0	0	0	0	499	511	241	1018	39	7	
14	0	0	0	0	536	502	242	0	39	7	
15	0	0	0	0	500	511	241	1018	39	7	
0	0	0	0	0	530	501	242	0	39	7	
1	0	0	0	0	501	510	241	1018	39	7	
2	0	0	0	0	535	500	241	0	39	7	
3	0	0	0	0	497	512	240	1018	39	7	
4	0	0	0	0	536	500	241	0	39	7	
5	0	0	0	0	503	511	240	1018	39	7	
6	0	0	0	0	537	505	240	0	39	8	
7	0	0	0	0	501	511	239	1018	39	8	
8	0	0	0	0	528	501	240	0	39	8	
9	0	0	0	0	499	510	239	1018	39	8	
10	0	0	0	0	523	505	239	0	39	8	
11	0	0	0	0	504	510	238	1018	39	8	
12	0	0	0	0	529	503	239	0	39	8	
13	0	0	0	0	502	512	238	1018	39	8	
14	0	0	0	0	534	503	239	0	39	8	
15	0	0	0	0	497	512	237	1018	39	8	
0	0	0	0	0	536	507	238	0	39	8	
1	0	0	0	0	498	511	237	1018	39	8	
2	0	0	0	0	531	502	238	0	39	8	
3	0	0	0	0	500	511	236	1018	39	8	
4	0	0	0	0	534	501	237	0	39	8	
5	0	0	0	0	504	510	236	1018	39	8	
6	0	0	0	0	529	502	236	0	39	8	
7	0	0	0	0	499	509	235	1018	39	8	
8	0	0	0	0	534	502	236	0	39	8	
9	0	0	0	0	497	512	235	1018	39	8	
10	0	0	0	0	531	504	236	0	39	8	
11	0	0	0	0	500	515	235	1018	39	8	
12	0	0	0	0	527	504	235	0	39	8	
13	0	0	0	0	495	514	234	1018	39	8	
14	0	0	0	0	533	506	235	0	39	8	
15	0	0	0	0	498	511	233	1018	39	8	
0	0	0	0	0	528	502	234	0	39	8	
1	0	0	0	0	500	508	233	1018	39	8	
2	0	0	0	0	534	500	233	0	39	8	
3	0	0	0	0	492	511	233	1018	39	8	
4	0	0	0	0	526	502	233	0	39	8	
5	0	0	0	0	500	510	233	1018	39	8	
6	0	0	0	0	528	500	233	0	39	8	
7	0	0	0	0	502	513	232	1018	39	8	
8	0	0	0	0	526	501	233	0	39	8	
9	0	0	0	0	504	510	232	1018	39	8	
10	0	0	0	0	536	502	233	0	39	8	
11	0	0	0	0	511	512	231	1018	39	8	
12	0	0	0	0	527	503	232	0	39	8	
13	0	0	0	0	503	511	231	1018	39	8	
14	0	0	0	0	529	499	232	0	39	8	
15	0	0	0	0	504	511	231	1018	39	8	
0	0	0	0	0	529	505	231	0	39	8	
1	0	0	0	0	507	510	231	1018	39	8	
2	0	0	0	0	534	503	231	0	39	8	
3	0	0	0	0	500	510	231	1018	39	8	
4	0	0	0	0	526	500	231	0	39	8	
5	0	0	0	0	509	508	231	1018	39	8	
6	0	0	0	0	525	502	231	0	39	8	
7	0	0	0	0	498	514	231	1018	39	8	
8	0	0	0	0	529	504	232	0	39	8	
9	0	0	0	0	500	514	231	1018	39	8	
10	0	0	0	0	529	501	232	0	39	8	
11	0	0	0	0	499	511	232	1018	39	8	
12	0	0	0	0	530	501	233	0	39	8	
13	0	0	0	0	497	513	232	1018	39	8	
14	0	0	0	0	522	503	233	0	39	8	
15	0	0	0	0	503	511	233	1018	39	8	
0	0	0	0	0	527	502	235	0	39	8	
1	0	0	0	0	494	511	234	1018	39	8	
2	0	0	0	0	530	502	235	0	39	8	
3	0	0	0	0	493	510	235	1018	39	8	
4	0	0	0	0	529	503	236	0	39	8	
5	0	0	0	0	496	514	236	1018	39	8	
6	0	0	0	0	522	503	237	0	39	8	
7	0	0	0	0	505	510	237	1018	39	8	
8	0	0	0	0	522	503	239	0	39	8	
9	0	0	0	0	502	513	239	1018	39	8	
10	0	0	0	0	524	504	240	0	39	8	
11	0	0	0	0	504	513	239	1018	39	8	
12	0	0	0	0	522	504	241	0	39	8	
13	0	0	0	0	502	511	240	1018	39	8	
14	0	0	0	0	521	504	241	0	39	8	
15	0	0	0	0	499	515	241	1018	39	8	
0	0	0	0	0	519	502	242	0	39	8	
1	0	0	0	0	502	509	242	1018	39	8	
2	0	0	0	0	524	502	243	0	39	8	
3	0	0	0	0	497	511	243	1018	39	8	
4	0	0	0	0	516	500	244	0	39	8	
5	0	0	0	0	505	512	243	1018	39	8	
6	0	0	0	0	524	500	245	0	39	8	
7	0	0	0	0	499	513	244	1018	39	8	
8	0	0	0	0	525	502	246	0	39	8	
9	0	0	0	0	494	510	245	1018	39	8	
10	0	0	0	0	527	505	246	0	39	8	
11	0	0	0	0	500	511	245	1018	39	8	
12	0	0	0	0	524	504	246	0	39	8	
13	0	0	0	0	515	511	245	1018	39	8	
14	0	0	0	0	524	500	246	0	39	8	
15	0	0	0	0	500	509	245	1018	39	8	
0	0	0	0	0	518	499	246	0	39	8	
1	0	0	0	0	496	513	245	1018	39	8	
2	0	0	0	0	524	506	246	0	39	8	
3	0	0	0	0	503	514	244	1018	39	8	
4	0	0	0	0	521	503	245	0	39	8	
5	0	0	0	0	501	511	244	1018	39	8	
6	0	0	0	0	519	500	244	0	39	8	
7	0	0	0	0	502	515	243	1018	39	8	
8	0	0	0	0	532	506	243	0	39	8	
9	0	0	0	0	501	511	242	1018	39	8	
10	0	0	0	0	523	503	243	0	39	8	
11	0	0	0	0	499	515	241	1018	39	8	
12	0	0	0	0	520	503	242	0	39	8	
13	0	0	0	0	499	511	241	1018	39	8	
14	0	0	0	0	522	499	241	0	39	8	
15	0	0	0	0	499	516	240	1018	39	8	
0	0	0	0	0	521	507	240	0	39	8	
1	0	0	0	0	496	515	239	1018	39	8	
2	0	0	0	0	525	501	239	0	39	8	
3	0	0	0	0	501	514	238	1018	39	8	
4	0	0	0	0	518	503	238	0	39	8	
5	0	0	0	0	507	514	237	1018	39	8	
6	0	0	0	0	516	502	237	0	39	8	
7	0	0	0	0	503	510	236	1018	39	8	
8	0	0	0	0	525	500	236	0	39	8	
9	0	0	0	0	499	512	235	1018	39	8	
10	0	0	0	0	515	502	236	0	39	8	
11	0	0	0	0	502	513	235	1019	39	8	
12	0	0	0	0	518	502	235	0	39	8	
13	0	0	0	0	505	513	234	1018	39	8	
14	0	0	0	0	524	503	235	0	39	8	
15	0	0	0	0	503	510	233	1018	39	8	
0	0	0	0	0	519	499	234	0	39	8	
1	0	0	0	0	504	508	233	1018	39	8	
2	0	0	0	0	519	505	233	0	39	8	
3	0	0	0	0	499	513	233	1018	39	8	
4	0	0	0	0	523	503	233	0	39	8	
5	0	0	0	0	504	511	232	1018	39	8	
6	0	0	0	0	521	501	233	0	39	8	
7	0	0	0	0	507	512	232	1018	39	8	
8	0	0	0	0	518	503	233	0	39	8	
9	0	0	0	0	507	509	232	1018	39	8	
10	0	0	0	0	518	502	232	0	39	8	
11	0	0	0	0	498	511	231	1018	39	8	
12	0	0	0	0	511	502	232	0	39	8	
13	0	0	0	0	509	508	232	1018	39	8	
14	0	0	0	0	512	503	232	0	39	8	
15	0	0	0	0	499	512	231	1018	39	8	
0	0	0	0	0	522	502	232	0	39	8	
1	0	0	0	0	491	510	232	1018	39	8	
2	0	0	0	0	516	500	233	0	39	8	
3	0	0	0	0	501	513	232	1018	39	8	
4	0	0	0	0	520	502	233	0	39	8	
5	0	0	0	0	499	513	233	1018	39	8	
6	0	0	0	0	516	499	233	0	39	8	
7	0	0	0	0	503	513	233	1018	39	8	
8	0	0	0	0	520	504	234	0	39	8	
9	0	0	0	0	504	513	233	1018	39	8	
10	0	0	0	0	516	502	234	0	39	8	
11	0	0	0	0	508	514	234	1018	39	8	
12	0	0	0	0	516	503	235	0	39	8	
13	0	0	0	0	495	512	235	1018	39	8	
14	0	0	0	0	517	503	235	0	39	8	
15	0	0	0	0	499	511	235	1018	39	8	
0	0	0	0	0	517	504	236	0	39	8	
1	0	0	0	0	507	515	235	1018	39	8	
2	0	0	0	0	520	504	236	0	39	8	
3	0	0	0	0	495	513	235	1018	39	8	
4	0	0	0	0	520	499	236	0	39	8	
5	0	0	0	0	507	512	236	1018	39	8	
6	0	0	0	0	515	500	236	0	39	8	
7	0	0	0	0	501	513	236	1018	39	8	
8	0	0	0	0	512	503	236	0	39	8	
9	0	0	0	0	509	514	236	1018	39	8	
10	0	0	0	0	519	500	236	0	39	8	
11	0	0	0	0	504	515	236	1018	39	8	
12	0	0	0	0	519	502	236	0	39	8	
13	0	0	0	0	502	512	236	1018	39	8	
14	0	0	0	0	515	502	236	0	39	8	
15	0	0	0	0	496	511	236	1018	39	8	
0	0	0	0	0	519	499	236	0	39	8	
1	0	0	0	0	501	512	236	1018	39	8	
2	0	0	0	0	519	504	236	0	39	8	
3	0	0	0	0	495	513	236	1018	39	8	
4	0	0	0	0	506	503	236	0	39	8	
5	0	0	0	0	504	511	236	1018	39	8	
6	0	0	0	0	513	503	236	0	39	8	
7	0	0	0	0	504	513	236	1018	39	8	
8	0	0	0	0	508	503	236	0	39	8	
9	0	0	0	0	502	511	236	1018	39	8	
10	0	0	0	0	523	502	236	0	39	8	
11	0	0	0	0	491	510	236	1018	39	8	
12	0	0	0	0	521	499	236	0	39	8	
13	0	0	0	0	494	511	235	1018	39	8	
